Radius(arcsec) Standard OpticsOnly PointingOnly 2xPointingRMS
0.0 0.042074849593330625 0.04774555066346278
0.25 0.08391264475221674 0.09514836903424831
0.5 0.1254078602148783 0.142056769060771
0.75 0.16649101905622407 0.18837203228212243
1.0 0.20707967152969706 0.23397760533863837
1.25 0.24703841271785296 0.27868268026057275
1.5 0.28623225231995153 0.32229943817856427
1.75 0.32462349721839157 0.36478038050645656
2.0 0.3621698101655357 0.4060728882663345
2.25 0.3987567474888704 0.44602482470965593
2.5 0.4343617286700242 0.4846144473960083
2.75 0.4688636173802844 0.5216864126122885
3.0 0.5021862054577745 0.5571499070222565
3.25 0.53433505121932 0.5910286682984701
3.5 0.5652294092626501 0.6232306897272113
3.75 0.5948957465053274 0.6538095390573029
4.0 0.623340856138741 0.6827925030118112
4.25 0.6505717513826497 0.7102071205515263
4.5 0.6764774951248094 0.7359326381324819
4.75 0.7009942041004744 0.7599121944489927
5.0 0.7242068526054162 0.7822772707091228
5.25 0.746191563192191 0.8031448880113918
5.5 0.766961901713931 0.8225540531590599
5.75 0.7864619537088864 0.840462859896493
6.0 0.8047058184103384 0.856913429322042
6.25 0.821802428409607 0.8720566054448119
6.5 0.8377480486069583 0.8859122107081028
6.75 0.8525764789860948 0.8985419856278707
7.0 0.8663753775798342 0.9100645574874773
7.25 0.8791370890818421 0.9204944378198314
7.5 0.8908960366069226 0.929890858602294
7.75 0.9017127316134351 0.9383379492218329
8.0 0.9116455564299267 0.9459148932590286
8.25 0.9207770111523633 0.9527212103632222
8.5 0.9291504581037398 0.9588154198595676
8.75 0.9367876046751428 0.9642349770305434
9.0 0.9437032938537611 0.9690103559386615
9.25 0.9499577209941253 0.9732112929821044
9.5 0.9556349158189928 0.9769242051710618
9.75 0.9607658744098608 0.9801878744896911
10.0 0.9653833184100649 0.9830409060611492
10.25 0.9695306020259834 0.9855288120652163
10.5 0.9732366999015387 0.987684359885341
10.75 0.9765390463129265 0.9895450734410666
11.0 0.979473098594227 0.9911453485044168
11.25 0.982084421871779 0.9925246270339732
11.5 0.9844103480079931 0.99371465250587
11.75 0.9864642180089542 0.9947301901557779
12.0 0.9882719826049764 0.9955931672201334
12.25 0.9898609201501309 0.9963252407710494
12.5 0.9912580137768754 0.9969465169734599
12.75 0.9924838744334572 0.9974724009883289
13.0 0.993550690666127 0.9979129068072458
13.25 0.9944789213973517 0.9982817660901346
13.5 0.9952862141939555 0.998590494277664
13.75 0.9959841275043096 0.9988469148769656
14.0 0.9965856228990763 0.9990590527195449
14.25 0.9971028593833312 0.9992340564671465
14.5 0.9975484430304269 0.99937874403192
14.75 0.9979326713636223 0.99949853363501
15.0 0.9982597572301649 0.9995960956104101
15.25 0.9985369193399644 0.9996750802031055
15.5 0.9987726396599974 0.9997393264629513
15.75 0.9989736809007009 0.9997917697630155
16.0 0.99914448716085 0.9998343772049912
16.25 0.9992882944582704 0.9998685902255071
16.5 0.9994092484210122 0.9998960284140953
16.75 0.9995108446675863 0.9999179954069188
17.0 0.9995962469969096 0.9999355991552539
17.25 0.9996675285589197 0.9999495811762388
17.5 0.9997266457324603 0.9999605939822782
17.75 0.9997758604362871 0.9999693114207244
18.0 0.9998167393805424 0.9999761917138547
18.25 0.9998504682673846 0.9999815766634282
18.5 0.9998781734989319 0.9999857666087373
18.75 0.9999010402202515 0.9999890466836728
19.0 0.999919888059546 0.9999916104719501
19.25 0.9999352809113597 0.9999935908568295
19.5 0.9999478389110267 0.9999951184925104
19.75 0.9999580511275785 0.9999962921561303
20.0 0.9999663240492861 0.9999971893137216
20.25 0.9999730540105906 0.9999978789113932
20.5 0.9999784910646167 0.9999984042535884
20.75 0.9999828729988837 0.9999988032516276
21.0 0.9999864015370337 0.9999991059531473
21.25 0.9999892268302005 0.9999993339588589
21.5 0.9999914841806781 0.9999995052287294
21.75 0.9999932853253902 0.9999996336423287
22.0 0.9999947221676921 0.9999997299120954
22.25 0.9999958645390461 0.999999801770394
22.5 0.9999967645317641 0.9999998547930312
22.75 0.9999974719151629 0.9999998937918111
23.0 0.9999980297724173 0.9999999225975101
23.25 0.9999984682395873 0.9999999437837089
23.5 0.9999988114268512 0.9999999592769109
23.75 0.9999990793800732 0.9999999705673694
24.0 0.9999992889843239 0.9999999788064466
24.25 0.9999994523922534 0.9999999847880059
24.5 0.9999995789354095 0.9999999890858511
24.75 0.9999996778510948 0.9999999922146181
25.0 0.9999997543284334 0.9999999944736001
25.25 0.9999998132759412 0.9999999960940857
25.5 0.9999998583140861 0.9999999972479398
25.75 0.999999892557074 0.9999999980610963
26.0 0.9999999186619462 0.9999999986357244
26.25 0.9999999386504808 0.9999999990454843
26.5 0.9999999540177007 0.9999999993380736
26.75 0.9999999655548073 0.999999999541335
27.0 0.9999999741710138 0.9999999996814145
27.25 0.9999999807198917 0.9999999997800972
27.5 0.9999999856629284 0.9999999998491165
27.75 0.999999989364224 0.9999999998966403
28.0 0.9999999921232611 0.9999999999294361
28.25 0.9999999941714203 0.9999999999518332
28.5 0.9999999957007528 0.999999999967264
28.75 0.9999999968347756 0.9999999999778059
29.0 0.9999999976780763 0.9999999999850294
29.25 0.9999999983040141 0.9999999999899651
29.5 0.9999999987614576 0.9999999999932674
29.75 0.9999999990962372 0.9999999999954914
30.0 0.9999999993421238 0.9999999999969871
30.25 0.9999999995235668 0.9999999999980025
30.5 0.9999999996563121 0.9999999999986847
30.75 0.9999999997522924 0.9999999999991348
31.0 0.9999999998220299 0.9999999999994347
31.25 0.9999999998722561 0.9999999999996312
31.5 0.99999999990834 0.9999999999997603
31.75 0.999999999934747 0.9999999999998472
32.0 0.9999999999537362 0.9999999999999035
32.25 0.9999999999673826 0.9999999999999405
32.5 0.9999999999770696 0.9999999999999646
32.75 0.9999999999838438 0.99999999999998
33.0 0.9999999999887383 0.9999999999999908
33.25 0.9999999999922788 0.9999999999999986
33.5 0.9999999999947854 1.0
33.75 0.9999999999965068 1.0
34.0 0.9999999999977218 1.0
34.25 0.9999999999985505 1.0
34.5 0.9999999999991995 1.0
34.75 0.9999999999996676 1.0
35.0 1.0 1.0
