"Option A is modeled to approximate Materion curve, CaF2 substrate assumed",,,,,,,,,,,
DUET1 A,,,,DUET1 B,,,,DUET1 C,,,
normal AOI,,f/1.25 cone angle avg,,normal AOI,,f/1.25 cone angle avg,,normal AOI,,f/1.25 cone angle avg,
nm,%T,nm,%T,nm,%T,nm,%T,nm,%T,nm,%T
150,0.064767927,150,0.058435935,150,0.3055,150,0.2568,150,1.3129,150,1.1027
151,0.068215018,151,0.063467297,151,0.2897,151,0.2487,151,1.2071,151,1.0372
152,0.073289203,152,0.070250594,152,0.2798,152,0.2452,152,1.1357,152,0.9981
153,0.080571231,153,0.079604936,153,0.2752,153,0.2464,153,1.0905,153,0.9804
154,0.09064837,154,0.092414475,154,0.2753,154,0.252,154,1.0672,154,0.9818
155,0.104589961,155,0.110199595,155,0.2806,155,0.2627,155,1.0652,155,1.0031
156,0.123018379,156,0.13400469,156,0.2911,156,0.2785,156,1.0834,156,1.0436
157,0.148244981,157,0.167340091,157,0.307,157,0.3003,157,1.1214,157,1.1051
158,0.183265198,158,0.215005713,158,0.3296,158,0.3299,158,1.1819,158,1.1921
159,0.232712654,159,0.284793452,159,0.3602,159,0.3691,159,1.269,159,1.3108
160,0.298538262,160,0.381689313,160,0.3972,160,0.4165,160,1.3766,160,1.4548
161,0.39302484,161,0.52766708,161,0.4442,161,0.4769,161,1.5151,161,1.6392
162,0.532463693,162,0.754953147,162,0.5046,162,0.5553,162,1.6934,162,1.8768
163,0.74390932,163,1.120546801,163,0.5823,163,0.6574,163,1.9219,163,2.1839
164,1.0524949,164,1.685582447,164,0.6763,164,0.7832,164,2.196,164,2.5568
165,1.530030189,165,2.59812475,165,0.7955,165,0.9458,165,2.54,165,3.0316
166,2.292978592,166,4.056672986,166,0.9497,166,1.1606,166,2.9787,166,3.6474
167,3.533458541,167,6.230745321,167,1.151,167,1.448,167,3.5419,167,4.4525
168,5.475452301,168,9.002849705,168,1.4079,168,1.8245,168,4.2465,168,5.4791
169,8.308067187,169,12.02568988,169,1.7333,169,2.3144,169,5.1183,169,6.7718
170,12.07368942,170,14.96545757,170,2.1645,170,2.9816,170,6.2432,170,8.4652
171,16.06238384,171,17.29378279,171,2.7446,171,3.9054,171,7.7043,171,10.6909
172,18.88034822,172,18.54727025,172,3.5336,172,5.1933,172,9.6122,172,13.6053
173,19.89252901,173,18.868614,173,4.5873,173,6.944,173,12.0371,173,17.2728
174,19.73376718,174,18.80269061,174,6.0258,174,9.3453,174,15.1541,174,21.8572
175,19.21675264,175,18.78754354,175,8.012,175,12.6063,175,19.1505,175,27.4384
176,18.85515036,176,19.06821324,176,10.7437,176,16.8742,176,24.1752,176,33.913
177,18.83865965,177,19.71787005,177,14.4681,177,22.194,177,30.299,177,40.9876
178,19.21100124,178,20.70618071,178,19.2116,178,28.1397,178,37.1307,178,47.8969
179,19.9673302,179,22.01810812,179,25.1268,179,34.4625,179,44.4712,179,54.3101
180,21.09648009,180,23.60913089,180,32.0291,180,40.6512,180,51.7665,180,59.7659
181,22.55641104,181,25.3828276,181,39.275,181,46.0758,181,58.2901,181,63.9056
182,24.31084196,182,27.25272915,182,45.9064,182,50.261,182,63.4447,182,66.6438
183,26.27665022,183,29.10180994,183,51.0392,183,53.0152,183,66.9503,183,68.1229
184,28.30349065,184,30.78789523,184,54.2555,184,54.4671,184,68.8706,184,68.6293
185,30.20786279,185,32.19511643,185,55.7946,185,54.9954,185,69.5749,185,68.5164
186,31.92125812,186,33.32038417,186,56.204,186,54.9707,186,69.4905,186,68.0469
187,33.35185546,187,34.16174134,187,55.9849,187,54.693,187,68.9533,187,67.4203
188,34.43499308,188,34.73201661,188,55.4841,188,54.3287,188,68.2009,188,66.7534
189,35.15847263,189,35.0695344,189,54.9191,189,53.9639,189,67.3913,189,66.1111
190,35.55740022,190,35.22410767,190,54.4017,190,53.6284,190,66.616,190,65.5209
191,35.69768065,191,35.24601324,191,53.9738,191,53.3196,191,65.9226,191,64.9898
192,35.65414284,192,35.18114744,192,53.6332,192,53.0214,192,65.3292,192,64.5143
193,35.50258697,193,35.06630452,193,53.3454,193,52.703,193,64.8104,193,64.0663
194,35.29392837,194,34.91965948,194,53.0768,194,52.341,194,64.3495,194,63.6295
195,35.0646897,195,34.75281592,195,52.7926,195,51.9161,195,63.9255,195,63.1886
196,34.81769367,196,34.54935946,196,52.4448,196,51.397,196,63.5096,196,62.7238
197,34.57562187,197,34.32100527,197,52.0255,197,50.7938,197,63.0913,197,62.2356
198,34.3360237,198,34.06355731,198,51.5189,198,50.1037,198,62.6559,198,61.7195
199,34.09494546,199,33.77613875,199,50.9299,199,49.3443,199,62.202,199,61.1849
200,33.84542719,200,33.45800179,200,50.2587,200,48.517,200,61.7228,200,60.6305
201,33.5930936,201,33.1222629,201,49.5165,201,47.6313,201,61.2177,201,60.0581
202,33.31808256,202,32.75442652,202,48.693,202,46.672,202,60.6802,202,59.4615
203,33.01566126,203,32.35713046,203,47.7932,203,45.6394,203,60.1119,203,58.8411
204,32.6843611,204,31.93007951,204,46.8212,204,44.5331,204,59.515,204,58.1959
205,32.32362056,205,31.47458409,205,45.7794,205,43.3526,205,58.8914,205,57.5231
206,31.94625839,206,31.00202056,206,44.6857,206,42.1145,206,58.2501,206,56.8269
207,31.53043773,207,30.48456484,207,43.5167,207,40.7979,207,57.5748,207,56.0853
208,31.06704883,208,29.90886965,208,42.2704,208,39.4059,208,56.8581,208,55.2868
209,30.56469033,209,29.27790518,209,40.9571,209,37.953,209,56.1071,209,54.4347
210,30.01442308,210,28.57919555,210,39.5789,210,36.4486,210,55.3156,210,53.5207
211,29.37852585,211,27.77282132,211,38.1115,211,34.8769,211,54.4598,211,52.5206
212,28.67081246,212,26.87818879,212,36.5935,212,33.282,212,53.5485,212,51.4461
213,27.87853833,213,25.88868552,213,35.0355,213,31.679,213,52.5739,213,50.2936
214,26.99417133,214,24.80847108,214,33.4565,214,30.0895,214,51.5337,214,49.0679
215,26.03574444,215,23.67445554,215,31.9116,215,28.5672,215,50.4529,215,47.808
216,24.99366819,216,22.48277944,216,30.38,216,27.0866,216,49.3093,216,46.4922
217,23.86217355,217,21.23733413,217,28.8621,217,25.6448,217,48.0957,217,45.1209
218,22.65322299,218,19.95767748,218,27.37,218,24.2485,218,46.8159,218,43.7051
219,21.38602154,219,18.6668054,219,25.9135,219,22.9017,219,45.4765,219,42.2576
220,20.08352772,220,17.38561268,220,24.5005,220,21.6059,220,44.0869,220,40.7925
221,18.77067974,221,16.13355225,221,23.1363,221,20.3608,221,42.6582,221,39.324
222,17.47108996,222,14.92588187,222,21.8235,222,19.1633,222,41.205,222,37.8672
223,16.20503599,223,13.77304606,223,20.562,223,18.0094,223,39.7415,223,36.4357
224,14.98821796,224,12.68002179,224,19.3499,224,16.8939,224,38.2824,224,35.0418
225,13.83120442,225,11.64930457,225,18.1834,225,15.8116,225,36.8416,225,33.6961
226,12.74207039,226,10.68144479,226,17.0596,226,14.7597,226,35.4332,226,32.4085
227,11.72222357,227,9.772822254,227,15.9744,227,13.7352,227,34.0721,227,31.1887
228,10.79742013,228,8.944786932,228,14.9536,228,12.7667,228,32.7988,228,30.0687
229,9.936421366,229,8.168832668,229,13.9682,229,11.8292,229,31.5916,229,29.0241
230,9.123468985,230,7.431389081,230,13.0047,230,10.9127,230,30.4458,230,28.0469
231,8.356222589,231,6.733176516,231,12.0666,231,10.0246,231,29.3709,231,27.1417
232,7.626231773,232,6.069738766,232,11.1507,232,9.1652,232,28.3636,232,26.3025
233,6.927236261,233,5.438636087,233,10.2563,233,8.3366,233,27.4215,233,25.5246
234,6.256479127,234,4.84083188,234,9.3865,234,7.5436,234,26.5437,234,24.804
235,5.613322574,235,4.277893811,235,8.5456,235,6.7911,235,25.7284,235,24.1365
236,5.002187884,236,3.755173435,236,7.7428,236,6.0872,236,24.9752,236,23.519
237,4.42231832,237,3.271899836,237,6.9789,237,5.4315,237,24.2777,237,22.9429
238,3.875252454,238,2.828655121,238,6.2561,238,4.8241,238,23.6247,238,22.3944
239,3.364883248,239,2.426610095,239,5.5775,239,4.266,239,23.006,239,21.8607
240,2.899679512,240,2.069664736,240,4.9522,240,3.7614,240,22.4282,240,21.346
241,2.489029248,241,1.762016618,241,4.3917,241,3.3168,241,21.8948,241,20.8516
242,2.124173566,242,1.494238768,242,3.883,242,2.9194,242,21.3868,242,20.3581
243,1.80409748,243,1.263484737,243,3.4249,243,2.5664,243,20.8967,243,19.857
244,1.526581517,244,1.066276898,244,3.0153,244,2.2544,244,20.4164,244,19.3397
245,1.288338544,245,0.89893854,245,2.6513,245,1.9798,245,19.9374,245,18.7986
246,1.085950426,246,0.758071204,246,2.3301,246,1.7394,246,19.4479,246,18.2237
247,0.914744907,247,0.639646459,247,2.0472,247,1.5291,247,18.9423,247,17.6129
248,0.770601766,248,0.540318702,248,1.7989,248,1.3453,248,18.4121,248,16.9623
249,0.648529894,249,0.456341536,249,1.5795,249,1.1834,249,17.8533,249,16.272
250,0.546499791,250,0.386189089,250,1.3878,250,1.0423,250,17.2544,250,15.5392
251,0.461264466,251,0.327536723,251,1.2206,251,0.9193,251,16.609,251,14.7654
252,0.390175504,252,0.278528731,252,1.0749,252,0.8122,252,15.9165,252,13.9578
253,0.33085675,253,0.237519899,253,0.948,253,0.7189,253,15.1772,253,13.1241
254,0.281319606,254,0.203146807,254,0.8375,254,0.6375,254,14.3947,254,12.2736
255,0.239883292,255,0.174280983,255,0.7412,255,0.5665,255,13.5757,255,11.417
256,0.205144558,256,0.149961577,256,0.6571,256,0.5044,256,12.7284,256,10.5646
257,0.175970553,257,0.129440446,257,0.5837,257,0.45,257,11.8652,257,9.7279
258,0.151411897,258,0.112075323,258,0.5196,258,0.4023,258,10.9986,258,8.917
259,0.130686281,259,0.097339699,259,0.4634,259,0.3605,259,10.141,259,8.1404
260,0.113143602,260,0.084798857,260,0.4142,260,0.3237,260,9.3043,260,7.4048
261,0.098258471,261,0.074096893,261,0.3709,261,0.2912,261,8.4987,261,6.7151
262,0.085587433,262,0.064936668,262,0.3329,262,0.2625,262,7.7328,262,6.0744
263,0.074772173,263,0.057072908,263,0.2994,263,0.2372,263,7.0129,263,5.484
264,0.065496788,264,0.050290969,264,0.2697,264,0.2146,264,6.3398,264,4.9416
265,0.057524122,265,0.044428331,265,0.2434,265,0.1946,265,5.7172,265,4.4471
266,0.050749293,266,0.039418491,266,0.2204,266,0.177,266,5.1552,266,4.0059
267,0.044913821,267,0.035080034,267,0.2001,267,0.1614,267,4.646,267,3.6098
268,0.039851989,268,0.031296805,268,0.1819,268,0.1474,268,4.1849,268,3.2536
269,0.035450307,269,0.027989169,269,0.1658,269,0.1348,269,3.7689,269,2.934
270,0.031611856,270,0.025089384,270,0.1513,270,0.1236,270,3.395,270,2.6479
271,0.028254654,271,0.022539278,271,0.1383,271,0.1135,271,3.0593,271,2.3917
272,0.025312206,272,0.020293642,272,0.1267,272,0.1043,272,2.7588,272,2.1627
273,0.022727413,273,0.018311335,273,0.1162,273,0.0961,273,2.4902,273,1.9581
274,0.020451257,274,0.016556937,274,0.1068,274,0.0886,274,2.2501,274,1.7753
275,0.018442509,275,0.015000993,275,0.0983,275,0.0819,275,2.0356,275,1.6118
276,0.016674776,276,0.013625423,276,0.0906,276,0.0758,276,1.8451,276,1.4664
277,0.015110541,277,0.012402522,277,0.0837,277,0.0703,277,1.6752,277,1.3365
278,0.013719554,278,0.011310193,278,0.0774,278,0.0653,278,1.5232,278,1.22
279,0.012479868,279,0.010332371,279,0.0717,279,0.0607,279,1.387,279,1.1153
280,0.011370511,280,0.00945366,280,0.0666,280,0.0565,280,1.2646,280,1.021
281,0.01037839,281,0.00866443,281,0.0618,281,0.0527,281,1.1548,281,0.9361
282,0.009489209,282,0.007954081,282,0.0575,282,0.0492,282,1.0562,282,0.8597
283,0.008690805,283,0.007313748,283,0.0536,283,0.0459,283,0.9675,283,0.7907
284,0.0079726,284,0.006735347,284,0.0499,284,0.043,284,0.8877,284,0.7284
285,0.007325377,285,0.006212122,285,0.0466,285,0.0403,285,0.8157,285,0.672
286,0.006741243,286,0.005737993,286,0.0436,286,0.0378,286,0.7507,286,0.6209
287,0.006212838,287,0.005307622,287,0.0408,287,0.0355,287,0.6919,287,0.5746
288,0.005734427,288,0.004916432,288,0.0382,288,0.0333,288,0.6388,288,0.5325
289,0.005300417,289,0.004560264,289,0.0359,289,0.0314,289,0.5905,289,0.4942
290,0.004907836,290,0.004237015,290,0.0337,290,0.0296,290,0.5469,290,0.4594
291,0.004551557,291,0.003942575,291,0.0317,291,0.0279,291,0.5074,291,0.4278
292,0.004226589,292,0.003673077,292,0.0299,292,0.0263,292,0.4714,292,0.3988
293,0.003929796,293,0.003426179,293,0.0281,293,0.0249,293,0.4385,293,0.3723
294,0.003658474,294,0.003199705,294,0.0266,294,0.0235,294,0.4084,294,0.3481
295,0.003409573,295,0.002991231,295,0.0251,295,0.0223,295,0.3809,295,0.3257
296,0.003181046,296,0.002799304,296,0.0237,296,0.0211,296,0.3556,296,0.3051
297,0.002971324,297,0.002622588,297,0.0224,297,0.02,297,0.3324,297,0.2862
298,0.002778561,298,0.002459631,298,0.0212,298,0.019,298,0.3111,298,0.2687
299,0.002601118,299,0.002309245,299,0.0201,299,0.0181,299,0.2915,299,0.2526
300,0.002437699,300,0.002170251,300,0.0191,300,0.0172,300,0.2735,300,0.2377
301,0.002286915,301,0.002041691,301,0.0181,301,0.0164,301,0.2568,301,0.2239
302,0.002147633,302,0.001922605,302,0.0172,302,0.0156,302,0.2415,302,0.2112
303,0.002019854,303,0.001813051,303,0.0164,303,0.0149,303,0.2274,303,0.1995
304,0.001901735,304,0.001711473,304,0.0156,304,0.0142,304,0.2144,304,0.1886
305,0.001792215,305,0.001617037,305,0.0149,305,0.0135,305,0.2023,305,0.1785
306,0.001690558,306,0.00152915,306,0.0142,306,0.0129,306,0.1911,306,0.1691
307,0.001596063,307,0.001447271,307,0.0135,307,0.0124,307,0.1807,307,0.1603
308,0.001508204,308,0.001370913,308,0.0129,308,0.0119,308,0.171,308,0.1522
309,0.001426363,309,0.001299661,309,0.0123,309,0.0113,309,0.162,309,0.1445
310,0.001350175,310,0.001233105,310,0.0118,310,0.0109,310,0.1536,310,0.1374
311,0.001280177,311,0.001171872,311,0.0113,311,0.0104,311,0.1459,311,0.1308
312,0.001214759,312,0.001114525,312,0.0108,312,0.01,312,0.1386,312,0.1246
313,0.001153613,313,0.001060791,313,0.0104,313,0.0096,313,0.1318,313,0.1188
314,0.001096352,314,0.001010369,314,0.01,314,0.0093,314,0.1255,314,0.1134
315,0.00104275,315,0.00096303,315,0.0096,315,0.0089,315,0.1196,315,0.1083
316,0.000992499,316,0.000918565,316,0.0092,316,0.0086,316,0.114,316,0.1034
317,0.000945344,317,0.000876759,317,0.0088,317,0.0083,317,0.1088,317,0.0989
318,0.000901073,318,0.000837394,318,0.0085,318,0.008,318,0.1038,318,0.0947
319,0.000859449,319,0.000800332,319,0.0082,319,0.0077,319,0.0992,319,0.0907
320,0.000820295,320,0.000765403,320,0.0079,320,0.0074,320,0.0949,320,0.0869
321,0.000783448,321,0.000732453,321,0.0076,321,0.0071,321,0.0908,321,0.0833
322,0.000748738,322,0.000701342,322,0.0073,322,0.0069,322,0.0869,322,0.0799
323,0.000716028,323,0.00067197,323,0.0071,323,0.0067,323,0.0833,323,0.0768
324,0.000685157,324,0.000644199,324,0.0068,324,0.0064,324,0.0799,324,0.0737
325,0.000656024,325,0.000617931,325,0.0066,325,0.0062,325,0.0766,325,0.0709
326,0.000628492,326,0.000593076,326,0.0063,326,0.006,326,0.0736,326,0.0682
327,0.000602754,327,0.000569797,327,0.0061,327,0.0058,327,0.0707,327,0.0657
328,0.000578496,328,0.000547823,328,0.0059,328,0.0056,328,0.068,328,0.0633
329,0.00055552,329,0.000526963,329,0.0057,329,0.0055,329,0.0654,329,0.061
330,0.000533753,330,0.000507166,330,0.0056,330,0.0053,330,0.063,330,0.0588
331,0.000513098,331,0.00048836,331,0.0054,331,0.0051,331,0.0607,331,0.0568
332,0.000493515,332,0.000470479,332,0.0052,332,0.005,332,0.0585,332,0.0548
333,0.000474909,333,0.000453472,333,0.0051,333,0.0048,333,0.0564,333,0.053
334,0.000457236,334,0.00043729,334,0.0049,334,0.0047,334,0.0544,334,0.0512
335,0.000440545,335,0.000421978,335,0.0048,335,0.0046,335,0.0526,335,0.0495
336,0.000424678,336,0.000407399,336,0.0046,336,0.0044,336,0.0508,336,0.0479
337,0.000409477,337,0.000393414,337,0.0045,337,0.0043,337,0.0491,337,0.0464
338,0.000395003,338,0.000380076,338,0.0044,338,0.0042,338,0.0474,338,0.0449
339,0.000381215,339,0.000367342,339,0.0042,339,0.0041,339,0.0459,339,0.0435
340,0.00036807,340,0.000355189,340,0.0041,340,0.004,340,0.0444,340,0.0422
341,0.000355533,341,0.000343574,341,0.004,341,0.0039,341,0.043,341,0.0409
342,0.000343574,342,0.000332483,342,0.0039,342,0.0038,342,0.0416,342,0.0397
343,0.000332154,343,0.00032187,343,0.0038,343,0.0037,343,0.0403,343,0.0385
344,0.000321248,344,0.000311724,344,0.0037,344,0.0036,344,0.0391,344,0.0374
345,0.000310828,345,0.000302016,345,0.0036,345,0.0035,345,0.0379,345,0.0363
346,0.000301148,346,0.000292995,346,0.0035,346,0.0034,346,0.0368,346,0.0353
347,0.000292146,347,0.000284597,347,0.0034,347,0.0033,347,0.0358,347,0.0343
348,0.000283544,348,0.00027656,348,0.0033,348,0.0033,348,0.0348,348,0.0334
349,0.00027529,349,0.000268844,349,0.0033,349,0.0032,349,0.0338,349,0.0326
350,0.000267375,350,0.000261433,350,0.0032,350,0.0031,350,0.0329,350,0.0317
351,0.000259777,351,0.000254302,351,0.0031,351,0.0031,351,0.0321,351,0.0309
352,0.000252476,352,0.000247451,352,0.003,352,0.003,352,0.0312,352,0.0301
353,0.000245471,353,0.000240863,353,0.003,353,0.0029,353,0.0304,353,0.0294
354,0.000238732,354,0.00023452,354,0.0029,354,0.0029,354,0.0296,354,0.0287
355,0.000232252,355,0.000228413,355,0.0028,355,0.0028,355,0.0289,355,0.028
356,0.000226022,356,0.000222531,356,0.0028,356,0.0027,356,0.0282,356,0.0273
357,0.000220029,357,0.000216865,357,0.0027,357,0.0027,357,0.0275,357,0.0267
358,0.000214259,358,0.000211407,358,0.0027,358,0.0026,358,0.0268,358,0.0261
359,0.000208704,359,0.000206144,359,0.0026,359,0.0026,359,0.0262,359,0.0255
360,0.000203353,360,0.000201071,360,0.0026,360,0.0025,360,0.0255,360,0.0249
361,0.000198198,361,0.000196173,361,0.0025,361,0.0025,361,0.0249,361,0.0243
362,0.000193228,362,0.000191448,362,0.0025,362,0.0024,362,0.0244,362,0.0238
363,0.000188434,363,0.000186883,363,0.0024,363,0.0024,363,0.0238,363,0.0233
364,0.00018381,364,0.000182478,364,0.0024,364,0.0023,364,0.0233,364,0.0228
365,0.000179176,365,0.000178053,365,0.0023,365,0.0023,365,0.0227,365,0.0223
366,0.000174317,366,0.000173396,366,0.0023,366,0.0023,366,0.0222,366,0.0218
367,0.000169633,367,0.000168904,367,0.0022,367,0.0022,367,0.0216,367,0.0213
368,0.000165124,368,0.000164574,368,0.0022,368,0.0022,368,0.0211,368,0.0208
369,0.000160779,369,0.000160395,369,0.0021,369,0.0021,369,0.0206,369,0.0203
370,0.000156592,370,0.000156365,370,0.0021,370,0.0021,370,0.0201,370,0.0198
371,0.000152556,371,0.000152475,371,0.002,371,0.002,371,0.0197,371,0.0194
372,0.000148662,372,0.00014872,372,0.002,372,0.002,372,0.0192,372,0.019
373,0.000144907,373,0.000145094,373,0.002,373,0.002,373,0.0188,373,0.0186
374,0.000141283,374,0.000141589,374,0.0019,374,0.0019,374,0.0184,374,0.0182
375,0.000137784,375,0.000138204,375,0.0019,375,0.0019,375,0.018,375,0.0178
376,0.000134406,376,0.00013493,376,0.0018,376,0.0019,376,0.0176,376,0.0174
377,0.000131141,377,0.000131765,377,0.0018,377,0.0018,377,0.0172,377,0.0171
378,0.000127988,378,0.0001287,378,0.0018,378,0.0018,378,0.0168,378,0.0167
379,0.00012494,379,0.000125739,379,0.0017,379,0.0018,379,0.0165,379,0.0164
380,0.000121992,380,0.000122871,380,0.0017,380,0.0017,380,0.0161,380,0.016
381,0.000119141,381,0.000120094,381,0.0017,381,0.0017,381,0.0158,381,0.0157
382,0.000116383,382,0.000117406,382,0.0016,382,0.0017,382,0.0155,382,0.0154
383,0.000113713,383,0.000114802,383,0.0016,383,0.0016,383,0.0152,383,0.0151
384,0.00011113,384,0.000112277,384,0.0016,384,0.0016,384,0.0149,384,0.0148
385,0.000108628,385,0.00010983,385,0.0016,385,0.0016,385,0.0146,385,0.0145
386,0.000106204,386,0.000107458,386,0.0015,386,0.0015,386,0.0143,386,0.0143
387,0.000103856,387,0.000105157,387,0.0015,387,0.0015,387,0.014,387,0.014
388,0.00010158,388,0.000102927,388,0.0015,388,0.0015,388,0.0137,388,0.0138
389,9.93871E-05,389,0.000100772,389,0.0015,389,0.0015,389,0.0135,389,0.0135
390,9.75978E-05,390,9.90239E-05,390,0.0014,390,0.0015,390,0.0133,390,0.0133
391,9.58562E-05,391,9.73218E-05,391,0.0014,391,0.0014,391,0.0131,391,0.0131
392,9.41629E-05,392,9.56621E-05,392,0.0014,392,0.0014,392,0.0128,392,0.0129
393,9.25145E-05,393,9.40459E-05,393,0.0014,393,0.0014,393,0.0126,393,0.0127
394,9.09097E-05,394,9.24698E-05,394,0.0014,394,0.0014,394,0.0124,394,0.0125
395,8.93449E-05,395,9.09348E-05,395,0.0013,395,0.0014,395,0.0123,395,0.0123
396,8.78234E-05,396,8.94376E-05,396,0.0013,396,0.0013,396,0.0121,396,0.0121
397,8.63396E-05,397,8.79792E-05,397,0.0013,397,0.0013,397,0.0119,397,0.012
398,8.48926E-05,398,8.65546E-05,398,0.0013,398,0.0013,398,0.0117,398,0.0118
399,8.34834E-05,399,8.51648E-05,399,0.0013,399,0.0013,399,0.0115,399,0.0116
400,8.21089E-05,400,8.38108E-05,400,0.0013,400,0.0013,400,0.0114,400,0.0115
401,8.07681E-05,401,8.24879E-05,401,0.0012,401,0.0013,401,0.0112,401,0.0113
402,7.94621E-05,402,8.1197E-05,402,0.0012,402,0.0012,402,0.011,402,0.0111
403,7.8188E-05,403,7.99356E-05,403,0.0012,403,0.0012,403,0.0109,403,0.011
404,7.69432E-05,404,7.87046E-05,404,0.0012,404,0.0012,404,0.0107,404,0.0108
405,7.57286E-05,405,7.75033E-05,405,0.0012,405,0.0012,405,0.0106,405,0.0107
406,7.45435E-05,406,7.63273E-05,406,0.0012,406,0.0012,406,0.0104,406,0.0106
407,7.33871E-05,407,7.51796E-05,407,0.0012,407,0.0012,407,0.0103,407,0.0104
408,7.2257E-05,408,7.40577E-05,408,0.0011,408,0.0012,408,0.0101,408,0.0103
409,7.11525E-05,409,7.29609E-05,409,0.0011,409,0.0012,409,0.01,409,0.0101
410,7.00745E-05,410,7.18886E-05,410,0.0011,410,0.0011,410,0.0099,410,0.01
411,6.90192E-05,411,7.08402E-05,411,0.0011,411,0.0011,411,0.0097,411,0.0099
412,6.79892E-05,412,6.98136E-05,412,0.0011,412,0.0011,412,0.0096,412,0.0098
413,6.69807E-05,413,6.88098E-05,413,0.0011,413,0.0011,413,0.0095,413,0.0096
414,6.59083E-05,414,6.77376E-05,414,0.0011,414,0.0011,414,0.0094,414,0.0095
415,6.48276E-05,415,6.66561E-05,415,0.001,415,0.0011,415,0.0092,415,0.0094
416,6.3772E-05,416,6.55979E-05,416,0.001,416,0.0011,416,0.0091,416,0.0093
417,6.27408E-05,417,6.45639E-05,417,0.001,417,0.0011,417,0.009,417,0.0091
418,6.1732E-05,418,6.35536E-05,418,0.001,418,0.001,418,0.0089,418,0.009
419,6.07477E-05,419,6.25662E-05,419,0.001,419,0.001,419,0.0087,419,0.0089
420,5.97861E-05,420,6.15999E-05,420,0.001,420,0.001,420,0.0086,420,0.0088
421,5.88451E-05,421,6.06555E-05,421,0.001,421,0.001,421,0.0085,421,0.0087
422,5.79255E-05,422,5.97297E-05,422,0.001,422,0.001,422,0.0084,422,0.0086
423,5.70269E-05,423,5.88261E-05,423,0.001,423,0.001,423,0.0083,423,0.0084
424,5.61474E-05,424,5.79402E-05,424,0.0009,424,0.001,424,0.0082,424,0.0083
425,5.52866E-05,425,5.70729E-05,425,0.0009,425,0.001,425,0.0081,425,0.0082
426,5.44453E-05,426,5.62251E-05,426,0.0009,426,0.0009,426,0.008,426,0.0081
427,5.36216E-05,427,5.53937E-05,427,0.0009,427,0.0009,427,0.0079,427,0.008
428,5.28165E-05,428,5.45808E-05,428,0.0009,428,0.0009,428,0.0078,428,0.0079
429,5.20271E-05,429,5.37836E-05,429,0.0009,429,0.0009,429,0.0077,429,0.0078
430,5.12554E-05,430,5.30029E-05,430,0.0009,430,0.0009,430,0.0076,430,0.0077
431,5.04987E-05,431,5.22384E-05,431,0.0009,431,0.0009,431,0.0075,431,0.0076
432,4.97577E-05,432,5.14885E-05,432,0.0009,432,0.0009,432,0.0074,432,0.0076
433,4.90332E-05,433,5.0754E-05,433,0.0008,433,0.0009,433,0.0073,433,0.0075
434,4.83226E-05,434,5.00334E-05,434,0.0008,434,0.0009,434,0.0072,434,0.0074
435,4.76255E-05,435,4.93276E-05,435,0.0008,435,0.0009,435,0.0071,435,0.0073
436,4.69505E-05,436,4.8643E-05,436,0.0008,436,0.0008,436,0.007,436,0.0072
437,4.63362E-05,437,4.80187E-05,437,0.0008,437,0.0008,437,0.0069,437,0.0071
438,4.57341E-05,438,4.74067E-05,438,0.0008,438,0.0008,438,0.0069,438,0.007
439,4.5143E-05,439,4.68048E-05,439,0.0008,439,0.0008,439,0.0068,439,0.007
440,4.45625E-05,440,4.62147E-05,440,0.0008,440,0.0008,440,0.0067,440,0.0069
441,4.39937E-05,441,4.56352E-05,441,0.0008,441,0.0008,441,0.0067,441,0.0068
442,4.3434E-05,442,4.50661E-05,442,0.0008,442,0.0008,442,0.0066,442,0.0068
443,4.28934E-05,443,4.45143E-05,443,0.0008,443,0.0008,443,0.0065,443,0.0067
444,4.23955E-05,444,4.40078E-05,444,0.0008,444,0.0008,444,0.0064,444,0.0066
445,4.19054E-05,445,4.35081E-05,445,0.0008,445,0.0008,445,0.0064,445,0.0066
446,4.14238E-05,446,4.3017E-05,446,0.0007,446,0.0008,446,0.0063,446,0.0065
447,4.09506E-05,447,4.25344E-05,447,0.0007,447,0.0008,447,0.0063,447,0.0064
448,4.04855E-05,448,4.20601E-05,448,0.0007,448,0.0008,448,0.0062,448,0.0064
449,4.00276E-05,449,4.1592E-05,449,0.0007,449,0.0008,449,0.0061,449,0.0063
450,3.95776E-05,450,4.1132E-05,450,0.0007,450,0.0007,450,0.0061,450,0.0063
451,3.91345E-05,451,4.06799E-05,451,0.0007,451,0.0007,451,0.006,451,0.0062
452,3.86999E-05,452,4.02356E-05,452,0.0007,452,0.0007,452,0.006,452,0.0061
453,3.8271E-05,453,3.9797E-05,453,0.0007,453,0.0007,453,0.0059,453,0.0061
454,3.78504E-05,454,3.93659E-05,454,0.0007,454,0.0007,454,0.0059,454,0.006
455,3.74352E-05,455,3.89413E-05,455,0.0007,455,0.0007,455,0.0058,455,0.006
456,3.70271E-05,456,3.85239E-05,456,0.0007,456,0.0007,456,0.0057,456,0.0059
457,3.66252E-05,457,3.81118E-05,457,0.0007,457,0.0007,457,0.0057,457,0.0059
458,3.62301E-05,458,3.77068E-05,458,0.0007,458,0.0007,458,0.0056,458,0.0058
459,3.5841E-05,459,3.73078E-05,459,0.0007,459,0.0007,459,0.0056,459,0.0058
460,3.54577E-05,460,3.69139E-05,460,0.0007,460,0.0007,460,0.0055,460,0.0057
461,3.508E-05,461,3.65267E-05,461,0.0007,461,0.0007,461,0.0055,461,0.0057
462,3.47088E-05,462,3.61451E-05,462,0.0007,462,0.0007,462,0.0054,462,0.0056
463,3.43431E-05,463,3.57693E-05,463,0.0006,463,0.0007,463,0.0054,463,0.0056
464,3.39821E-05,464,3.53989E-05,464,0.0006,464,0.0007,464,0.0053,464,0.0055
465,3.36271E-05,465,3.5034E-05,465,0.0006,465,0.0007,465,0.0053,465,0.0055
466,3.32774E-05,466,3.46745E-05,466,0.0006,466,0.0007,466,0.0053,466,0.0054
467,3.29329E-05,467,3.43202E-05,467,0.0006,467,0.0007,467,0.0052,467,0.0054
468,3.25934E-05,468,3.39703E-05,468,0.0006,468,0.0006,468,0.0052,468,0.0053
469,3.22589E-05,469,3.36264E-05,469,0.0006,469,0.0006,469,0.0051,469,0.0053
470,3.19293E-05,470,3.32866E-05,470,0.0006,470,0.0006,470,0.0051,470,0.0052
471,3.16039E-05,471,3.29519E-05,471,0.0006,471,0.0006,471,0.005,471,0.0052
472,3.12838E-05,472,3.2622E-05,472,0.0006,472,0.0006,472,0.005,472,0.0052
473,3.09678E-05,473,3.22968E-05,473,0.0006,473,0.0006,473,0.0049,473,0.0051
474,3.0657E-05,474,3.19757E-05,474,0.0006,474,0.0006,474,0.0049,474,0.0051
475,3.03501E-05,475,3.16592E-05,475,0.0006,475,0.0006,475,0.0049,475,0.005
476,3.00476E-05,476,3.13473E-05,476,0.0006,476,0.0006,476,0.0048,476,0.005
477,2.97536E-05,477,3.10435E-05,477,0.0006,477,0.0006,477,0.0048,477,0.0049
478,2.94917E-05,478,3.07737E-05,478,0.0006,478,0.0006,478,0.0048,478,0.0049
479,2.92341E-05,479,3.05077E-05,479,0.0006,479,0.0006,479,0.0047,479,0.0049
480,2.89788E-05,480,3.02441E-05,480,0.0006,480,0.0006,480,0.0047,480,0.0048
481,2.87276E-05,481,2.99847E-05,481,0.0006,481,0.0006,481,0.0046,481,0.0048
482,2.84787E-05,482,2.97276E-05,482,0.0006,482,0.0006,482,0.0046,482,0.0048
483,2.82338E-05,483,2.94741E-05,483,0.0006,483,0.0006,483,0.0046,483,0.0047
484,2.79911E-05,484,2.9224E-05,484,0.0006,484,0.0006,484,0.0045,484,0.0047
485,2.77517E-05,485,2.89761E-05,485,0.0006,485,0.0006,485,0.0045,485,0.0047
486,2.7515E-05,486,2.87316E-05,486,0.0006,486,0.0006,486,0.0045,486,0.0046
487,2.72703E-05,487,2.84787E-05,487,0.0005,487,0.0006,487,0.0044,487,0.0046
488,2.70253E-05,488,2.82254E-05,488,0.0005,488,0.0006,488,0.0044,488,0.0046
489,2.67837E-05,489,2.7975E-05,489,0.0005,489,0.0006,489,0.0044,489,0.0045
490,2.65448E-05,490,2.77281E-05,490,0.0005,490,0.0006,490,0.0043,490,0.0045
491,2.63087E-05,491,2.7484E-05,491,0.0005,491,0.0006,491,0.0043,491,0.0045
492,2.60753E-05,492,2.72427E-05,492,0.0005,492,0.0006,492,0.0043,492,0.0044
493,2.58452E-05,493,2.70041E-05,493,0.0005,493,0.0005,493,0.0043,493,0.0044
494,2.56177E-05,494,2.67689E-05,494,0.0005,494,0.0005,494,0.0042,494,0.0044
495,2.53928E-05,495,2.65357E-05,495,0.0005,495,0.0005,495,0.0042,495,0.0043
496,2.51704E-05,496,2.63057E-05,496,0.0005,496,0.0005,496,0.0042,496,0.0043
497,2.49511E-05,497,2.60783E-05,497,0.0005,497,0.0005,497,0.0041,497,0.0043
498,2.47338E-05,498,2.58529E-05,498,0.0005,498,0.0005,498,0.0041,498,0.0042
499,2.45194E-05,499,2.56307E-05,499,0.0005,499,0.0005,499,0.0041,499,0.0042
500,2.43075E-05,500,2.54109E-05,500,0.0005,500,0.0005,500,0.004,500,0.0042
501,2.40979E-05,501,2.51936E-05,501,0.0005,501,0.0005,501,0.004,501,0.0041
502,2.38908E-05,502,2.49793E-05,502,0.0005,502,0.0005,502,0.004,502,0.0041
503,2.36859E-05,503,2.47668E-05,503,0.0005,503,0.0005,503,0.004,503,0.0041
504,2.34833E-05,504,2.45567E-05,504,0.0005,504,0.0005,504,0.0039,504,0.0041
505,2.32836E-05,505,2.43489E-05,505,0.0005,505,0.0005,505,0.0039,505,0.004
506,2.30855E-05,506,2.41435E-05,506,0.0005,506,0.0005,506,0.0039,506,0.004
507,2.28902E-05,507,2.39409E-05,507,0.0005,507,0.0005,507,0.0038,507,0.004
508,2.26966E-05,508,2.374E-05,508,0.0005,508,0.0005,508,0.0038,508,0.0039
509,2.25056E-05,509,2.35413E-05,509,0.0005,509,0.0005,509,0.0038,509,0.0039
510,2.23162E-05,510,2.33448E-05,510,0.0005,510,0.0005,510,0.0038,510,0.0039
511,2.21294E-05,511,2.31505E-05,511,0.0005,511,0.0005,511,0.0037,511,0.0039
512,2.19442E-05,512,2.29583E-05,512,0.0005,512,0.0005,512,0.0037,512,0.0038
513,2.17611E-05,513,2.27683E-05,513,0.0005,513,0.0005,513,0.0037,513,0.0038
514,2.15804E-05,514,2.25803E-05,514,0.0005,514,0.0005,514,0.0037,514,0.0038
515,2.14013E-05,515,2.23939E-05,515,0.0005,515,0.0005,515,0.0036,515,0.0038
516,2.12241E-05,516,2.22101E-05,516,0.0005,516,0.0005,516,0.0036,516,0.0037
517,2.10499E-05,517,2.20288E-05,517,0.0005,517,0.0005,517,0.0036,517,0.0037
518,2.0879E-05,518,2.18514E-05,518,0.0004,518,0.0005,518,0.0036,518,0.0037
519,2.071E-05,519,2.16755E-05,519,0.0004,519,0.0005,519,0.0035,519,0.0037
520,2.05428E-05,520,2.15016E-05,520,0.0004,520,0.0005,520,0.0035,520,0.0036
521,2.0377E-05,521,2.1329E-05,521,0.0004,521,0.0005,521,0.0035,521,0.0036
522,2.02134E-05,522,2.11587E-05,522,0.0004,522,0.0005,522,0.0035,522,0.0036
523,2.00512E-05,523,2.09899E-05,523,0.0004,523,0.0005,523,0.0034,523,0.0036
524,1.98907E-05,524,2.08233E-05,524,0.0004,524,0.0005,524,0.0034,524,0.0035
525,1.97319E-05,525,2.06581E-05,525,0.0004,525,0.0004,525,0.0034,525,0.0035
526,1.95749E-05,526,2.04946E-05,526,0.0004,526,0.0004,526,0.0034,526,0.0035
527,1.94191E-05,527,2.03325E-05,527,0.0004,527,0.0004,527,0.0033,527,0.0035
528,1.92655E-05,528,2.01725E-05,528,0.0004,528,0.0004,528,0.0033,528,0.0034
529,1.91131E-05,529,2.00138E-05,529,0.0004,529,0.0004,529,0.0033,529,0.0034
530,1.89623E-05,530,1.98568E-05,530,0.0004,530,0.0004,530,0.0033,530,0.0034
531,1.88131E-05,531,1.97015E-05,531,0.0004,531,0.0004,531,0.0033,531,0.0034
532,1.86651E-05,532,1.95479E-05,532,0.0004,532,0.0004,532,0.0032,532,0.0034
533,1.85191E-05,533,1.93955E-05,533,0.0004,533,0.0004,533,0.0032,533,0.0033
534,1.83743E-05,534,1.92451E-05,534,0.0004,534,0.0004,534,0.0032,534,0.0033
535,1.8231E-05,535,1.90959E-05,535,0.0004,535,0.0004,535,0.0032,535,0.0033
536,1.80892E-05,536,1.89479E-05,536,0.0004,536,0.0004,536,0.0032,536,0.0033
537,1.79486E-05,537,1.88018E-05,537,0.0004,537,0.0004,537,0.0031,537,0.0032
538,1.78098E-05,538,1.86569E-05,538,0.0004,538,0.0004,538,0.0031,538,0.0032
539,1.76722E-05,539,1.85136E-05,539,0.0004,539,0.0004,539,0.0031,539,0.0032
540,1.75356E-05,540,1.83717E-05,540,0.0004,540,0.0004,540,0.0031,540,0.0032
541,1.74008E-05,541,1.8231E-05,541,0.0004,541,0.0004,541,0.003,541,0.0032
542,1.72671E-05,542,1.80917E-05,542,0.0004,542,0.0004,542,0.003,542,0.0031
543,1.71348E-05,543,1.79539E-05,543,0.0004,543,0.0004,543,0.003,543,0.0031
544,1.7004E-05,544,1.78176E-05,544,0.0004,544,0.0004,544,0.003,544,0.0031
545,1.68741E-05,545,1.76824E-05,545,0.0004,545,0.0004,545,0.003,545,0.0031
546,1.67456E-05,546,1.75489E-05,546,0.0004,546,0.0004,546,0.003,546,0.0031
547,1.66192E-05,547,1.74169E-05,547,0.0004,547,0.0004,547,0.0029,547,0.003
548,1.64938E-05,548,1.72862E-05,548,0.0004,548,0.0004,548,0.0029,548,0.003
549,1.63697E-05,549,1.71569E-05,549,0.0004,549,0.0004,549,0.0029,549,0.003
550,1.62465E-05,550,1.70286E-05,550,0.0004,550,0.0004,550,0.0029,550,0.003
551,1.6125E-05,551,1.69017E-05,551,0.0004,551,0.0004,551,0.0029,551,0.003
552,1.60044E-05,552,1.67761E-05,552,0.0004,552,0.0004,552,0.0028,552,0.0029
553,1.58847E-05,553,1.66518E-05,553,0.0004,553,0.0004,553,0.0028,553,0.0029
554,1.57667E-05,554,1.65284E-05,554,0.0004,554,0.0004,554,0.0028,554,0.0029
555,1.56495E-05,555,1.64063E-05,555,0.0004,555,0.0004,555,0.0028,555,0.0029
556,1.55335E-05,556,1.62855E-05,556,0.0004,556,0.0004,556,0.0028,556,0.0029
557,1.54184E-05,557,1.61655E-05,557,0.0004,557,0.0004,557,0.0028,557,0.0028
558,1.53045E-05,558,1.60469E-05,558,0.0004,558,0.0004,558,0.0027,558,0.0028
559,1.51918E-05,559,1.59294E-05,559,0.0004,559,0.0004,559,0.0027,559,0.0028
560,1.508E-05,560,1.58128E-05,560,0.0004,560,0.0004,560,0.0027,560,0.0028
561,1.49696E-05,561,1.56975E-05,561,0.0003,561,0.0004,561,0.0027,561,0.0028
562,1.48597E-05,562,1.55833E-05,562,0.0003,562,0.0004,562,0.0027,562,0.0028
563,1.47513E-05,563,1.547E-05,563,0.0003,563,0.0004,563,0.0026,563,0.0027
564,1.46497E-05,564,1.53642E-05,564,0.0003,564,0.0004,564,0.0026,564,0.0027
565,1.45573E-05,565,1.52679E-05,565,0.0003,565,0.0004,565,0.0026,565,0.0027
566,1.44654E-05,566,1.51723E-05,566,0.0003,566,0.0004,566,0.0026,566,0.0027
567,1.43744E-05,567,1.50775E-05,567,0.0003,567,0.0004,567,0.0026,567,0.0027
568,1.42843E-05,568,1.49837E-05,568,0.0003,568,0.0003,568,0.0026,568,0.0027
569,1.41948E-05,569,1.48902E-05,569,0.0003,569,0.0003,569,0.0026,569,0.0027
570,1.41059E-05,570,1.47979E-05,570,0.0003,570,0.0003,570,0.0025,570,0.0026
571,1.40178E-05,571,1.47062E-05,571,0.0003,571,0.0003,571,0.0025,571,0.0026
572,1.39303E-05,572,1.4615E-05,572,0.0003,572,0.0003,572,0.0025,572,0.0026
573,1.38436E-05,573,1.45248E-05,573,0.0003,573,0.0003,573,0.0025,573,0.0026
574,1.37578E-05,574,1.44351E-05,574,0.0003,574,0.0003,574,0.0025,574,0.0026
575,1.36726E-05,575,1.43463E-05,575,0.0003,575,0.0003,575,0.0025,575,0.0026
576,1.35878E-05,576,1.42584E-05,576,0.0003,576,0.0003,576,0.0025,576,0.0025
577,1.35039E-05,577,1.4171E-05,577,0.0003,577,0.0003,577,0.0024,577,0.0025
578,1.34205E-05,578,1.40841E-05,578,0.0003,578,0.0003,578,0.0024,578,0.0025
579,1.3338E-05,579,1.39981E-05,579,0.0003,579,0.0003,579,0.0024,579,0.0025
580,1.32562E-05,580,1.3913E-05,580,0.0003,580,0.0003,580,0.0024,580,0.0025
581,1.3175E-05,581,1.38283E-05,581,0.0003,581,0.0003,581,0.0024,581,0.0025
582,1.30945E-05,582,1.37445E-05,582,0.0003,582,0.0003,582,0.0024,582,0.0025
583,1.30149E-05,583,1.36616E-05,583,0.0003,583,0.0003,583,0.0024,583,0.0025
584,1.29357E-05,584,1.35791E-05,584,0.0003,584,0.0003,584,0.0024,584,0.0024
585,1.2857E-05,585,1.34971E-05,585,0.0003,585,0.0003,585,0.0023,585,0.0024
586,1.27791E-05,586,1.34159E-05,586,0.0003,586,0.0003,586,0.0023,586,0.0024
587,1.27016E-05,587,1.33355E-05,587,0.0003,587,0.0003,587,0.0023,587,0.0024
588,1.2625E-05,588,1.32556E-05,588,0.0003,588,0.0003,588,0.0023,588,0.0024
589,1.25487E-05,589,1.31762E-05,589,0.0003,589,0.0003,589,0.0023,589,0.0024
590,1.24735E-05,590,1.30978E-05,590,0.0003,590,0.0003,590,0.0023,590,0.0024
591,1.23988E-05,591,1.302E-05,591,0.0003,591,0.0003,591,0.0023,591,0.0023
592,1.23245E-05,592,1.29429E-05,592,0.0003,592,0.0003,592,0.0023,592,0.0023
593,1.2251E-05,593,1.28662E-05,593,0.0003,593,0.0003,593,0.0022,593,0.0023
594,1.21781E-05,594,1.279E-05,594,0.0003,594,0.0003,594,0.0022,594,0.0023
595,1.21057E-05,595,1.27148E-05,595,0.0003,595,0.0003,595,0.0022,595,0.0023
596,1.20337E-05,596,1.26398E-05,596,0.0003,596,0.0003,596,0.0022,596,0.0023
597,1.19624E-05,597,1.25655E-05,597,0.0003,597,0.0003,597,0.0022,597,0.0023
598,1.18916E-05,598,1.24919E-05,598,0.0003,598,0.0003,598,0.0022,598,0.0023
599,1.18214E-05,599,1.24188E-05,599,0.0003,599,0.0003,599,0.0022,599,0.0022
600,1.1752E-05,600,1.23464E-05,600,0.0003,600,0.0003,600,0.0022,600,0.0022
601,1.16826E-05,601,1.22744E-05,601,0.0003,601,0.0003,601,0.0021,601,0.0022
602,1.16142E-05,602,1.22031E-05,602,0.0003,602,0.0003,602,0.0021,602,0.0022
603,1.15462E-05,603,1.21322E-05,603,0.0003,603,0.0003,603,0.0021,603,0.0022
604,1.14786E-05,604,1.2062E-05,604,0.0003,604,0.0003,604,0.0021,604,0.0022
605,1.14117E-05,605,1.19922E-05,605,0.0003,605,0.0003,605,0.0021,605,0.0022
606,1.13451E-05,606,1.19228E-05,606,0.0003,606,0.0003,606,0.0021,606,0.0022
607,1.12792E-05,607,1.18541E-05,607,0.0003,607,0.0003,607,0.0021,607,0.0022
608,1.12137E-05,608,1.17861E-05,608,0.0003,608,0.0003,608,0.0021,608,0.0021
609,1.11486E-05,609,1.17184E-05,609,0.0003,609,0.0003,609,0.0021,609,0.0021
610,1.10843E-05,610,1.16515E-05,610,0.0003,610,0.0003,610,0.002,610,0.0021
611,1.10202E-05,611,1.15848E-05,611,0.0003,611,0.0003,611,0.002,611,0.0021
612,1.09567E-05,612,1.15186E-05,612,0.0003,612,0.0003,612,0.002,612,0.0021
613,1.08938E-05,613,1.1453E-05,613,0.0003,613,0.0003,613,0.002,613,0.0021
614,1.08313E-05,614,1.13881E-05,614,0.0003,614,0.0003,614,0.002,614,0.0021
615,1.07691E-05,615,1.13235E-05,615,0.0003,615,0.0003,615,0.002,615,0.0021
616,1.07075E-05,616,1.12595E-05,616,0.0003,616,0.0003,616,0.002,616,0.0021
617,1.06466E-05,617,1.11959E-05,617,0.0003,617,0.0003,617,0.002,617,0.002
618,1.0586E-05,618,1.11327E-05,618,0.0003,618,0.0003,618,0.002,618,0.002
619,1.05257E-05,619,1.10701E-05,619,0.0003,619,0.0003,619,0.002,619,0.002
620,1.04672E-05,620,1.10091E-05,620,0.0003,620,0.0003,620,0.0019,620,0.002
621,1.04234E-05,621,1.09638E-05,621,0.0003,621,0.0003,621,0.0019,621,0.002
622,1.03798E-05,622,1.09184E-05,622,0.0003,622,0.0003,622,0.0019,622,0.002
623,1.03367E-05,623,1.08738E-05,623,0.0003,623,0.0003,623,0.0019,623,0.002
624,1.02934E-05,624,1.0829E-05,624,0.0003,624,0.0003,624,0.0019,624,0.002
625,1.02506E-05,625,1.07847E-05,625,0.0003,625,0.0003,625,0.0019,625,0.002
626,1.02082E-05,626,1.07404E-05,626,0.0003,626,0.0003,626,0.0019,626,0.002
627,1.01658E-05,627,1.06967E-05,627,0.0003,627,0.0003,627,0.0019,627,0.0019
628,1.01237E-05,628,1.0653E-05,628,0.0003,628,0.0003,628,0.0019,628,0.0019
629,1.00818E-05,629,1.06096E-05,629,0.0003,629,0.0003,629,0.0019,629,0.0019
630,1.00404E-05,630,1.05665E-05,630,0.0003,630,0.0003,630,0.0019,630,0.0019
631,9.99885E-06,631,1.05235E-05,631,0.0003,631,0.0003,631,0.0019,631,0.0019
632,9.95772E-06,632,1.04809E-05,632,0.0002,632,0.0003,632,0.0018,632,0.0019
633,9.91676E-06,633,1.04385E-05,633,0.0002,633,0.0003,633,0.0018,633,0.0019
634,9.8762E-06,634,1.03963E-05,634,0.0002,634,0.0003,634,0.0018,634,0.0019
635,9.83581E-06,635,1.03543E-05,635,0.0002,635,0.0003,635,0.0018,635,0.0019
636,9.79558E-06,636,1.03126E-05,636,0.0002,636,0.0003,636,0.0018,636,0.0019
637,9.75551E-06,637,1.02712E-05,637,0.0002,637,0.0003,637,0.0018,637,0.0019
638,9.71583E-06,638,1.02301E-05,638,0.0002,638,0.0003,638,0.0018,638,0.0019
639,9.67609E-06,639,1.0189E-05,639,0.0002,639,0.0003,639,0.0018,639,0.0019
640,9.63696E-06,640,1.01482E-05,640,0.0002,640,0.0003,640,0.0018,640,0.0018
641,9.59776E-06,641,1.01076E-05,641,0.0002,641,0.0003,641,0.0018,641,0.0018
642,9.55895E-06,642,1.00675E-05,642,0.0002,642,0.0003,642,0.0018,642,0.0018
643,9.52029E-06,643,1.00274E-05,643,0.0002,643,0.0002,643,0.0018,643,0.0018
644,9.48178E-06,644,9.98757E-06,644,0.0002,644,0.0002,644,0.0018,644,0.0018
645,9.44344E-06,645,9.94787E-06,645,0.0002,645,0.0002,645,0.0017,645,0.0018
646,9.40546E-06,646,9.90855E-06,646,0.0002,646,0.0002,646,0.0017,646,0.0018
647,9.36764E-06,647,9.86938E-06,647,0.0002,647,0.0002,647,0.0017,647,0.0018
648,9.33018E-06,648,9.83037E-06,648,0.0002,648,0.0002,648,0.0017,648,0.0018
649,9.29266E-06,649,9.79174E-06,649,0.0002,649,0.0002,649,0.0017,649,0.0018
650,9.2555E-06,650,9.75304E-06,650,0.0002,650,0.0002,650,0.0017,650,0.0018
651,9.21849E-06,651,9.71494E-06,651,0.0002,651,0.0002,651,0.0017,651,0.0018
652,9.18185E-06,652,9.67676E-06,652,0.0002,652,0.0002,652,0.0017,652,0.0018
653,9.16453E-06,653,9.65895E-06,653,0.0002,653,0.0002,653,0.0017,653,0.0018
654,9.15335E-06,654,9.64806E-06,654,0.0002,654,0.0002,654,0.0017,654,0.0017
655,9.1424E-06,655,9.63696E-06,655,0.0002,655,0.0002,655,0.0017,655,0.0017
656,9.13146E-06,656,9.62587E-06,656,0.0002,656,0.0002,656,0.0017,656,0.0017
657,9.12053E-06,657,9.61502E-06,657,0.0002,657,0.0002,657,0.0017,657,0.0017
658,9.10961E-06,658,9.60417E-06,658,0.0002,658,0.0002,658,0.0017,658,0.0017
659,9.09871E-06,659,9.59312E-06,659,0.0002,659,0.0002,659,0.0017,659,0.0017
660,9.08783E-06,660,9.58231E-06,660,0.0002,660,0.0002,660,0.0017,660,0.0017
661,9.07695E-06,661,9.5715E-06,661,0.0002,661,0.0002,661,0.0017,661,0.0017
662,9.06609E-06,662,9.56049E-06,662,0.0002,662,0.0002,662,0.0017,662,0.0017
663,9.05524E-06,663,9.54971E-06,663,0.0002,663,0.0002,663,0.0017,663,0.0017
664,9.0442E-06,664,9.53872E-06,664,0.0002,664,0.0002,664,0.0017,664,0.0017
665,9.03337E-06,665,9.52774E-06,665,0.0002,665,0.0002,665,0.0016,665,0.0017
666,9.02236E-06,666,9.51678E-06,666,0.0002,666,0.0002,666,0.0016,666,0.0017
667,9.01156E-06,667,9.50583E-06,667,0.0002,667,0.0002,667,0.0016,667,0.0017
668,9.00057E-06,668,9.49511E-06,668,0.0002,668,0.0002,668,0.0016,668,0.0017
669,8.98959E-06,669,9.48418E-06,669,0.0002,669,0.0002,669,0.0016,669,0.0017
670,8.97884E-06,670,9.47327E-06,670,0.0002,670,0.0002,670,0.0016,670,0.0017
671,8.96788E-06,671,9.46215E-06,671,0.0002,671,0.0002,671,0.0016,671,0.0017
672,8.95695E-06,672,9.45127E-06,672,0.0002,672,0.0002,672,0.0016,672,0.0017
673,8.94602E-06,673,9.44039E-06,673,0.0002,673,0.0002,673,0.0016,673,0.0017
674,8.93511E-06,674,9.42953E-06,674,0.0002,674,0.0002,674,0.0016,674,0.0017
675,8.92421E-06,675,9.41846E-06,675,0.0002,675,0.0002,675,0.0016,675,0.0017
676,8.91313E-06,676,9.40763E-06,676,0.0002,676,0.0002,676,0.0016,676,0.0017
677,8.90225E-06,677,9.3968E-06,677,0.0002,677,0.0002,677,0.0016,677,0.0017
678,8.8914E-06,678,9.38577E-06,678,0.0002,678,0.0002,678,0.0016,678,0.0017
679,8.88055E-06,679,9.37476E-06,679,0.0002,679,0.0002,679,0.0016,679,0.0017
680,8.86952E-06,680,9.36397E-06,680,0.0002,680,0.0002,680,0.0016,680,0.0017
681,8.8587E-06,681,9.35298E-06,681,0.0002,681,0.0002,681,0.0016,681,0.0016
682,8.84769E-06,682,9.34222E-06,682,0.0002,682,0.0002,682,0.0016,682,0.0016
683,8.8369E-06,683,9.33125E-06,683,0.0002,683,0.0002,683,0.0016,683,0.0016
684,8.82592E-06,684,9.3203E-06,684,0.0002,684,0.0002,684,0.0016,684,0.0016
685,8.81516E-06,685,9.30936E-06,685,0.0002,685,0.0002,685,0.0016,685,0.0016
686,8.8042E-06,686,9.29865E-06,686,0.0002,686,0.0002,686,0.0016,686,0.0016
687,8.79326E-06,687,9.28774E-06,687,0.0002,687,0.0002,687,0.0016,687,0.0016
688,8.78234E-06,688,9.27684E-06,688,0.0002,688,0.0002,688,0.0016,688,0.0016
689,8.77647E-06,689,9.27129E-06,689,0.0002,689,0.0002,689,0.0016,689,0.0016
690,8.79164E-06,690,9.28774E-06,690,0.0002,690,0.0002,690,0.0016,690,0.0016
691,8.80684E-06,691,9.30443E-06,691,0.0002,691,0.0002,691,0.0016,691,0.0016
692,8.82186E-06,692,9.32095E-06,692,0.0002,692,0.0002,692,0.0016,692,0.0016
693,8.8369E-06,693,9.33727E-06,693,0.0002,693,0.0002,693,0.0016,693,0.0016
694,8.85197E-06,694,9.35363E-06,694,0.0002,694,0.0002,694,0.0016,694,0.0016
695,8.86686E-06,695,9.37001E-06,695,0.0002,695,0.0002,695,0.0016,695,0.0016
696,8.88158E-06,696,9.3862E-06,696,0.0002,696,0.0002,696,0.0016,696,0.0016
697,8.89652E-06,697,9.40243E-06,697,0.0002,697,0.0002,697,0.0016,697,0.0016
698,8.91128E-06,698,9.41846E-06,698,0.0002,698,0.0002,698,0.0016,698,0.0016
699,8.92586E-06,699,9.43452E-06,699,0.0002,699,0.0002,699,0.0016,699,0.0016
700,8.94046E-06,700,9.45061E-06,700,0.0002,700,0.0002,700,0.0016,700,0.0016
701,8.95509E-06,701,9.46651E-06,701,0.0002,701,0.0002,701,0.0016,701,0.0016
702,8.96954E-06,702,9.48244E-06,702,0.0002,702,0.0002,702,0.0016,702,0.0016
703,8.98401E-06,703,9.49839E-06,703,0.0002,703,0.0002,703,0.0016,703,0.0016
704,8.99829E-06,704,9.51415E-06,704,0.0002,704,0.0002,704,0.0016,704,0.0016
705,9.0126E-06,705,9.52972E-06,705,0.0002,705,0.0002,705,0.0016,705,0.0016
706,9.02693E-06,706,9.54553E-06,706,0.0002,706,0.0002,706,0.0016,706,0.0016
707,9.04107E-06,707,9.56115E-06,707,0.0002,707,0.0002,707,0.0016,707,0.0016
708,9.05545E-06,708,9.57679E-06,708,0.0002,708,0.0002,708,0.0016,708,0.0016
709,9.06964E-06,709,9.59246E-06,709,0.0002,709,0.0002,709,0.0016,709,0.0016
710,9.08385E-06,710,9.60815E-06,710,0.0002,710,0.0002,710,0.0016,710,0.0016
711,9.09809E-06,711,9.62365E-06,711,0.0002,711,0.0002,711,0.0016,711,0.0016
712,9.11213E-06,712,9.63918E-06,712,0.0002,712,0.0002,712,0.0016,712,0.0016
713,9.1262E-06,713,9.65473E-06,713,0.0002,713,0.0002,713,0.0016,713,0.0016
714,9.14008E-06,714,9.67008E-06,714,0.0002,714,0.0002,714,0.0016,714,0.0016
715,9.15419E-06,715,9.68545E-06,715,0.0002,715,0.0002,715,0.0016,715,0.0016
716,9.1679E-06,716,9.70063E-06,716,0.0002,716,0.0002,716,0.0016,716,0.0016
717,9.18185E-06,717,9.71583E-06,717,0.0002,717,0.0002,717,0.0016,717,0.0016
718,9.1956E-06,718,9.73106E-06,718,0.0002,718,0.0002,718,0.0016,718,0.0016
719,9.20937E-06,719,9.74608E-06,719,0.0002,719,0.0002,719,0.0016,719,0.0016
720,9.22295E-06,720,9.76135E-06,720,0.0002,720,0.0002,720,0.0016,720,0.0016
721,9.23655E-06,721,9.7762E-06,721,0.0002,721,0.0002,721,0.0016,721,0.0016
722,9.25018E-06,722,9.79129E-06,722,0.0002,722,0.0002,722,0.0016,722,0.0016
723,9.2636E-06,723,9.80618E-06,723,0.0002,723,0.0002,723,0.0016,723,0.0016
724,9.27705E-06,724,9.82087E-06,724,0.0002,724,0.0002,724,0.0016,724,0.0016
725,9.29052E-06,725,9.83581E-06,725,0.0002,725,0.0002,725,0.0016,725,0.0016
726,9.30379E-06,726,9.85054E-06,726,0.0002,726,0.0002,726,0.0016,726,0.0016
727,9.31708E-06,727,9.86529E-06,727,0.0002,727,0.0002,727,0.0016,727,0.0016
728,9.33039E-06,728,9.87984E-06,728,0.0002,728,0.0002,728,0.0016,728,0.0016
729,9.34351E-06,729,9.89441E-06,729,0.0002,729,0.0002,729,0.0016,729,0.0016
730,9.40892E-06,730,9.96414E-06,730,0.0002,730,0.0002,730,0.0016,730,0.0016
731,9.4997E-06,731,1.00605E-05,731,0.0002,731,0.0002,731,0.0016,731,0.0016
732,9.59091E-06,732,1.01576E-05,732,0.0002,732,0.0002,732,0.0016,732,0.0016
733,9.68256E-06,733,1.02551E-05,733,0.0002,733,0.0002,733,0.0016,733,0.0016
734,9.77507E-06,734,1.03533E-05,734,0.0002,734,0.0002,734,0.0016,734,0.0017
735,9.86802E-06,735,1.04523E-05,735,0.0002,735,0.0002,735,0.0016,735,0.0017
736,9.96139E-06,736,1.05516E-05,736,0.0002,736,0.0002,736,0.0016,736,0.0017
737,1.00556E-05,737,1.0652E-05,737,0.0002,737,0.0003,737,0.0016,737,0.0017
738,1.01503E-05,738,1.07525E-05,738,0.0002,738,0.0003,738,0.0016,738,0.0017
739,1.02454E-05,739,1.0854E-05,739,0.0002,739,0.0003,739,0.0016,739,0.0017
740,1.03414E-05,740,1.09559E-05,740,0.0002,740,0.0003,740,0.0016,740,0.0017
741,1.04378E-05,741,1.10586E-05,741,0.0002,741,0.0003,741,0.0017,741,0.0017
742,1.05349E-05,742,1.11619E-05,742,0.0003,742,0.0003,742,0.0017,742,0.0017
743,1.06326E-05,743,1.12657E-05,743,0.0003,743,0.0003,743,0.0017,743,0.0017
744,1.07307E-05,744,1.13702E-05,744,0.0003,744,0.0003,744,0.0017,744,0.0017
745,1.08298E-05,745,1.14755E-05,745,0.0003,745,0.0003,745,0.0017,745,0.0018
746,1.09292E-05,746,1.15814E-05,746,0.0003,746,0.0003,746,0.0017,746,0.0018
747,1.10291E-05,747,1.1688E-05,747,0.0003,747,0.0003,747,0.0017,747,0.0018
748,1.11299E-05,748,1.17951E-05,748,0.0003,748,0.0003,748,0.0017,748,0.0018
749,1.1231E-05,749,1.19028E-05,749,0.0003,749,0.0003,749,0.0017,749,0.0018
750,1.13329E-05,750,1.20113E-05,750,0.0003,750,0.0003,750,0.0017,750,0.0018
751,1.14354E-05,751,1.21202E-05,751,0.0003,751,0.0003,751,0.0017,751,0.0018
752,1.15385E-05,752,1.22301E-05,752,0.0003,752,0.0003,752,0.0017,752,0.0018
753,1.16421E-05,753,1.23404E-05,753,0.0003,753,0.0003,753,0.0018,753,0.0018
754,1.17463E-05,754,1.24515E-05,754,0.0003,754,0.0003,754,0.0018,754,0.0018
755,1.18511E-05,755,1.25632E-05,755,0.0003,755,0.0003,755,0.0018,755,0.0018
756,1.19567E-05,756,1.26754E-05,756,0.0003,756,0.0003,756,0.0018,756,0.0019
757,1.20629E-05,757,1.27885E-05,757,0.0003,757,0.0003,757,0.0018,757,0.0019
758,1.21694E-05,758,1.29021E-05,758,0.0003,758,0.0003,758,0.0018,758,0.0019
759,1.22767E-05,759,1.30164E-05,759,0.0003,759,0.0003,759,0.0018,759,0.0019
760,1.23848E-05,760,1.31314E-05,760,0.0003,760,0.0003,760,0.0018,760,0.0019
761,1.24934E-05,761,1.32471E-05,761,0.0003,761,0.0003,761,0.0018,761,0.0019
762,1.26026E-05,762,1.33635E-05,762,0.0003,762,0.0003,762,0.0018,762,0.0019
763,1.27122E-05,763,1.34803E-05,763,0.0003,763,0.0003,763,0.0018,763,0.0019
764,1.28227E-05,764,1.35982E-05,764,0.0003,764,0.0003,764,0.0019,764,0.0019
765,1.29336E-05,765,1.37164E-05,765,0.0003,765,0.0003,765,0.0019,765,0.0019
766,1.30452E-05,766,1.38353E-05,766,0.0003,766,0.0003,766,0.0019,766,0.0019
767,1.31577E-05,767,1.3955E-05,767,0.0003,767,0.0003,767,0.0019,767,0.002
768,1.32706E-05,768,1.40754E-05,768,0.0003,768,0.0003,768,0.0019,768,0.002
769,1.33841E-05,769,1.41965E-05,769,0.0003,769,0.0003,769,0.0019,769,0.002
770,1.3498E-05,770,1.43179E-05,770,0.0003,770,0.0003,770,0.0019,770,0.002
771,1.36129E-05,771,1.44404E-05,771,0.0003,771,0.0003,771,0.0019,771,0.002
772,1.37284E-05,772,1.45633E-05,772,0.0003,772,0.0003,772,0.0019,772,0.002
773,1.38443E-05,773,1.46872E-05,773,0.0003,773,0.0003,773,0.0019,773,0.002
774,1.39611E-05,774,1.48115E-05,774,0.0003,774,0.0003,774,0.0019,774,0.002
775,1.40994E-05,775,1.49586E-05,775,0.0003,775,0.0003,775,0.002,775,0.002
776,1.44537E-05,776,1.53345E-05,776,0.0003,776,0.0003,776,0.002,776,0.0021
777,1.48163E-05,777,1.57185E-05,777,0.0003,777,0.0003,777,0.002,777,0.0021
778,1.51873E-05,778,1.61113E-05,778,0.0003,778,0.0003,778,0.0021,778,0.0021
779,1.55665E-05,779,1.65132E-05,779,0.0003,779,0.0004,779,0.0021,779,0.0022
780,1.5954E-05,780,1.69239E-05,780,0.0003,780,0.0004,780,0.0021,780,0.0022
781,1.63505E-05,781,1.7344E-05,781,0.0004,781,0.0004,781,0.0022,781,0.0022
782,1.67556E-05,782,1.77734E-05,782,0.0004,782,0.0004,782,0.0022,782,0.0023
783,1.71704E-05,783,1.82125E-05,783,0.0004,783,0.0004,783,0.0022,783,0.0023
784,1.75938E-05,784,1.86612E-05,784,0.0004,784,0.0004,784,0.0023,784,0.0024
785,1.80269E-05,785,1.91201E-05,785,0.0004,785,0.0004,785,0.0023,785,0.0024
786,1.84697E-05,786,1.95889E-05,786,0.0004,786,0.0004,786,0.0024,786,0.0024
787,1.89221E-05,787,2.00683E-05,787,0.0004,787,0.0004,787,0.0024,787,0.0025
788,1.93847E-05,788,2.05584E-05,788,0.0004,788,0.0004,788,0.0024,788,0.0025
789,1.98577E-05,789,2.10591E-05,789,0.0004,789,0.0004,789,0.0025,789,0.0026
790,2.03409E-05,790,2.1571E-05,790,0.0004,790,0.0004,790,0.0025,790,0.0026
791,2.08344E-05,791,2.20938E-05,791,0.0004,791,0.0004,791,0.0026,791,0.0026
792,2.13393E-05,792,2.26282E-05,792,0.0004,792,0.0005,792,0.0026,792,0.0027
793,2.18545E-05,793,2.31745E-05,793,0.0004,793,0.0005,793,0.0026,793,0.0027
794,2.23815E-05,794,2.37323E-05,794,0.0004,794,0.0005,794,0.0027,794,0.0028
795,2.29419E-05,795,2.43254E-05,795,0.0005,795,0.0005,795,0.0027,795,0.0028
796,2.3595E-05,796,2.50161E-05,796,0.0005,796,0.0005,796,0.0028,796,0.0029
797,2.42655E-05,797,2.57247E-05,797,0.0005,797,0.0005,797,0.0028,797,0.0029
798,2.4954E-05,798,2.64527E-05,798,0.0005,798,0.0005,798,0.0029,798,0.003
799,2.56602E-05,799,2.71988E-05,799,0.0005,799,0.0005,799,0.0029,799,0.0031
800,2.63852E-05,800,2.79653E-05,800,0.0005,800,0.0005,800,0.003,800,0.0031
801,2.71294E-05,801,2.87515E-05,801,0.0005,801,0.0005,801,0.0031,801,0.0032
802,2.78927E-05,802,2.95583E-05,802,0.0005,802,0.0006,802,0.0031,802,0.0032
803,2.86761E-05,803,3.03865E-05,803,0.0005,803,0.0006,803,0.0032,803,0.0033
804,2.94802E-05,804,3.12363E-05,804,0.0006,804,0.0006,804,0.0033,804,0.0034
805,3.03054E-05,805,3.21078E-05,805,0.0006,805,0.0006,805,0.0033,805,0.0034
806,3.11516E-05,806,3.3002E-05,806,0.0006,806,0.0006,806,0.0034,806,0.0035
807,3.20199E-05,807,3.39188E-05,807,0.0006,807,0.0006,807,0.0034,807,0.0036
808,3.29109E-05,808,3.48602E-05,808,0.0006,808,0.0006,808,0.0035,808,0.0036
809,3.38252E-05,809,3.58253E-05,809,0.0006,809,0.0007,809,0.0036,809,0.0037
810,3.47624E-05,810,3.68154E-05,810,0.0006,810,0.0007,810,0.0037,810,0.0038
811,3.5724E-05,811,3.78312E-05,811,0.0007,811,0.0007,811,0.0037,811,0.0039
812,3.67105E-05,812,3.88723E-05,812,0.0007,812,0.0007,812,0.0038,812,0.0039
813,3.77225E-05,813,3.99411E-05,813,0.0007,813,0.0007,813,0.0039,813,0.004
814,3.87606E-05,814,4.10365E-05,814,0.0007,814,0.0007,814,0.0039,814,0.0041
815,3.98245E-05,815,4.21599E-05,815,0.0007,815,0.0007,815,0.004,815,0.0042
816,4.08592E-05,816,4.32514E-05,816,0.0007,816,0.0008,816,0.0041,816,0.0042
817,4.17898E-05,817,4.42334E-05,817,0.0007,817,0.0008,817,0.0042,817,0.0043
818,4.27396E-05,818,4.52356E-05,818,0.0008,818,0.0008,818,0.0042,818,0.0044
819,4.37089E-05,819,4.62583E-05,819,0.0008,819,0.0008,819,0.0043,819,0.0044
820,4.46982E-05,820,4.73021E-05,820,0.0008,820,0.0008,820,0.0044,820,0.0045
821,4.57088E-05,821,4.83671E-05,821,0.0008,821,0.0008,821,0.0044,821,0.0046
822,4.67391E-05,822,4.94538E-05,822,0.0008,822,0.0008,822,0.0045,822,0.0047
823,4.77914E-05,823,5.05638E-05,823,0.0008,823,0.0009,823,0.0046,823,0.0047
824,4.88652E-05,824,5.16952E-05,824,0.0008,824,0.0009,824,0.0046,824,0.0048
825,4.99609E-05,825,5.28506E-05,825,0.0009,825,0.0009,825,0.0047,825,0.0049
826,5.10787E-05,826,5.40294E-05,826,0.0009,826,0.0009,826,0.0048,826,0.005
827,5.22204E-05,827,5.52319E-05,827,0.0009,827,0.0009,827,0.0049,827,0.005
828,5.33839E-05,828,5.64599E-05,828,0.0009,828,0.0009,828,0.005,828,0.0051
829,5.4572E-05,829,5.77112E-05,829,0.0009,829,0.001,829,0.005,829,0.0052
830,5.5784E-05,830,5.89889E-05,830,0.0009,830,0.001,830,0.0051,830,0.0053
831,5.70204E-05,831,6.0292E-05,831,0.001,831,0.001,831,0.0052,831,0.0054
832,5.82814E-05,832,6.16212E-05,832,0.001,832,0.001,832,0.0053,832,0.0055
833,5.9569E-05,833,6.29767E-05,833,0.001,833,0.001,833,0.0054,833,0.0055
834,6.08822E-05,834,6.43606E-05,834,0.001,834,0.001,834,0.0054,834,0.0056
835,6.22214E-05,835,6.57718E-05,835,0.001,835,0.0011,835,0.0055,835,0.0057
836,6.35872E-05,836,6.72109E-05,836,0.001,836,0.0011,836,0.0056,836,0.0058
837,6.498E-05,837,6.86784E-05,837,0.0011,837,0.0011,837,0.0057,837,0.0059
838,6.63835E-05,838,7.01552E-05,838,0.0011,838,0.0011,838,0.0058,838,0.006
839,6.77595E-05,839,7.16028E-05,839,0.0011,839,0.0011,839,0.0059,839,0.0061
840,6.91624E-05,840,7.30786E-05,840,0.0011,840,0.0012,840,0.006,840,0.0062
841,7.05911E-05,841,7.45813E-05,841,0.0011,841,0.0012,841,0.006,841,0.0063
842,7.2046E-05,842,7.61115E-05,842,0.0012,842,0.0012,842,0.0061,842,0.0064
843,7.35275E-05,843,7.76694E-05,843,0.0012,843,0.0012,843,0.0062,843,0.0064
844,7.50378E-05,844,7.92574E-05,844,0.0012,844,0.0012,844,0.0063,844,0.0065
845,7.65738E-05,845,8.08742E-05,845,0.0012,845,0.0013,845,0.0064,845,0.0066
846,7.81394E-05,846,8.25201E-05,846,0.0012,846,0.0013,846,0.0065,846,0.0067
847,7.97352E-05,847,8.41957E-05,847,0.0013,847,0.0013,847,0.0066,847,0.0068
848,8.1358E-05,848,8.59014E-05,848,0.0013,848,0.0013,848,0.0067,848,0.0069
849,8.30118E-05,849,8.76395E-05,849,0.0013,849,0.0013,849,0.0068,849,0.007
850,8.46954E-05,850,8.94087E-05,850,0.0013,850,0.0014,850,0.0069,850,0.0071
851,8.64092E-05,851,9.12116E-05,851,0.0013,851,0.0014,851,0.007,851,0.0073
852,8.81556E-05,852,9.30443E-05,852,0.0014,852,0.0014,852,0.0071,852,0.0074
853,8.99311E-05,853,9.49118E-05,853,0.0014,853,0.0014,853,0.0072,853,0.0075
854,9.17424E-05,854,9.68144E-05,854,0.0014,854,0.0015,854,0.0073,854,0.0076
855,9.35837E-05,855,9.87484E-05,855,0.0014,855,0.0015,855,0.0074,855,0.0077
856,9.54597E-05,856,0.000100719,856,0.0015,856,0.0015,856,0.0075,856,0.0078
857,9.73688E-05,857,0.000102724,857,0.0015,857,0.0015,857,0.0077,857,0.0079
858,9.93116E-05,858,0.000104766,858,0.0015,858,0.0016,858,0.0078,858,0.008
859,0.000101291,859,0.000106844,859,0.0015,859,0.0016,859,0.0079,859,0.0081
860,0.000103305,860,0.000108958,860,0.0016,860,0.0016,860,0.008,860,0.0083
861,0.000105356,861,0.000111109,861,0.0016,861,0.0016,861,0.0081,861,0.0084
862,0.000107441,862,0.0001133,862,0.0016,862,0.0017,862,0.0082,862,0.0085
863,0.000109565,863,0.000115529,863,0.0016,863,0.0017,863,0.0083,863,0.0086
864,0.000111727,864,0.000117799,864,0.0017,864,0.0017,864,0.0085,864,0.0087
865,0.000113925,865,0.000120107,865,0.0017,865,0.0017,865,0.0086,865,0.0089
866,0.000116164,866,0.000122456,866,0.0017,866,0.0018,866,0.0087,866,0.009
867,0.000118443,867,0.000124845,867,0.0017,867,0.0018,867,0.0088,867,0.0091
868,0.000120759,868,0.000127277,868,0.0018,868,0.0018,868,0.009,868,0.0093
869,0.000123118,869,0.000129751,869,0.0018,869,0.0019,869,0.0091,869,0.0094
870,0.000125519,870,0.00013227,870,0.0018,870,0.0019,870,0.0092,870,0.0095
871,0.000127962,871,0.000134831,871,0.0019,871,0.0019,871,0.0094,871,0.0097
872,0.000130446,872,0.000137436,872,0.0019,872,0.0019,872,0.0095,872,0.0098
873,0.000132975,873,0.000140088,873,0.0019,873,0.002,873,0.0096,873,0.0099
874,0.000135544,874,0.000142784,874,0.0019,874,0.002,874,0.0098,874,0.0101
875,0.000138162,875,0.000145529,875,0.002,875,0.002,875,0.0099,875,0.0102
876,0.000140825,876,0.00014832,876,0.002,876,0.0021,876,0.01,876,0.0104
877,0.000143532,877,0.000151158,877,0.002,877,0.0021,877,0.0102,877,0.0105
878,0.000146285,878,0.000154046,878,0.0021,878,0.0021,878,0.0103,878,0.0107
879,0.000149087,879,0.000156982,879,0.0021,879,0.0022,879,0.0105,879,0.0108
880,0.000151939,880,0.000159971,880,0.0021,880,0.0022,880,0.0106,880,0.011
881,0.000154835,881,0.000163008,881,0.0022,881,0.0022,881,0.0108,881,0.0111
882,0.000157787,882,0.000166096,882,0.0022,882,0.0023,882,0.0109,882,0.0113
883,0.000160783,883,0.000169239,883,0.0022,883,0.0023,883,0.0111,883,0.0114
884,0.000163832,884,0.000172433,884,0.0023,884,0.0023,884,0.0112,884,0.0116
885,0.000166936,885,0.000175683,885,0.0023,885,0.0024,885,0.0114,885,0.0117
886,0.000169102,886,0.000177955,886,0.0023,886,0.0024,886,0.0115,886,0.0118
887,0.000169746,887,0.000178628,887,0.0023,887,0.0024,887,0.0115,887,0.0119
888,0.000170388,888,0.000179296,888,0.0023,888,0.0024,888,0.0116,888,0.0119
889,0.000171029,889,0.000179966,889,0.0024,889,0.0024,889,0.0116,889,0.012
890,0.000171668,890,0.000180634,890,0.0024,890,0.0024,890,0.0116,890,0.012
891,0.000172306,891,0.000181301,891,0.0024,891,0.0024,891,0.0117,891,0.012
892,0.000172942,892,0.000181966,892,0.0024,892,0.0025,892,0.0117,892,0.0121
893,0.000173576,893,0.000182629,893,0.0024,893,0.0025,893,0.0117,893,0.0121
894,0.000174209,894,0.000183286,894,0.0024,894,0.0025,894,0.0118,894,0.0121
895,0.00017484,895,0.00018395,895,0.0024,895,0.0025,895,0.0118,895,0.0122
896,0.000175469,896,0.000184608,896,0.0024,896,0.0025,896,0.0118,896,0.0122
897,0.000176096,897,0.000185264,897,0.0024,897,0.0025,897,0.0119,897,0.0122
898,0.000176726,898,0.000185922,898,0.0024,898,0.0025,898,0.0119,898,0.0123
899,0.00017735,899,0.000186574,899,0.0024,899,0.0025,899,0.0119,899,0.0123
900,0.000177975,900,0.000187228,900,0.0024,900,0.0025,900,0.012,900,0.0123
901,0.000178595,901,0.000187875,901,0.0024,901,0.0025,901,0.012,901,0.0124
902,0.000179217,902,0.000188525,902,0.0024,902,0.0025,902,0.012,902,0.0124
903,0.000179833,903,0.000189169,903,0.0025,903,0.0025,903,0.0121,903,0.0124
904,0.000180451,904,0.000189815,904,0.0025,904,0.0025,904,0.0121,904,0.0125
905,0.000181063,905,0.000190458,905,0.0025,905,0.0026,905,0.0121,905,0.0125
906,0.000181677,906,0.0001911,906,0.0025,906,0.0026,906,0.0122,906,0.0126
907,0.000182289,907,0.000191739,907,0.0025,907,0.0026,907,0.0122,907,0.0126
908,0.000182898,908,0.000192376,908,0.0025,908,0.0026,908,0.0122,908,0.0126
909,0.000183502,909,0.00019301,909,0.0025,909,0.0026,909,0.0123,909,0.0127
910,0.000184107,910,0.000193642,910,0.0025,910,0.0026,910,0.0123,910,0.0127
911,0.00018471,911,0.000194272,911,0.0025,911,0.0026,911,0.0123,911,0.0127
912,0.000184944,912,0.000194518,912,0.0025,912,0.0026,912,0.0124,912,0.0127
913,0.000184468,913,0.000194017,913,0.0025,913,0.0026,913,0.0123,913,0.0127
914,0.000183988,914,0.000193513,914,0.0025,914,0.0026,914,0.0123,914,0.0127
915,0.000183506,915,0.000193015,915,0.0025,915,0.0026,915,0.0123,915,0.0127
916,0.000183025,916,0.000192509,916,0.0025,916,0.0026,916,0.0123,916,0.0126
917,0.000182545,917,0.000192008,917,0.0025,917,0.0026,917,0.0123,917,0.0126
918,0.000182062,918,0.000191501,918,0.0025,918,0.0026,918,0.0122,918,0.0126
919,0.000181577,919,0.000190999,919,0.0025,919,0.0026,919,0.0122,919,0.0126
920,0.000181092,920,0.000190489,920,0.0025,920,0.0026,920,0.0122,920,0.0126
921,0.000180609,921,0.000189985,921,0.0025,921,0.0026,921,0.0122,921,0.0125
922,0.000180123,922,0.000189479,922,0.0025,922,0.0025,922,0.0121,922,0.0125
923,0.000179639,923,0.000188969,923,0.0025,923,0.0025,923,0.0121,923,0.0125
924,0.000179151,924,0.00018846,924,0.0025,924,0.0025,924,0.0121,924,0.0125
925,0.000178661,925,0.000187949,925,0.0024,925,0.0025,925,0.0121,925,0.0124
926,0.000178176,926,0.000187439,926,0.0024,926,0.0025,926,0.0121,926,0.0124
927,0.000177685,927,0.00018693,927,0.0024,927,0.0025,927,0.012,927,0.0124
928,0.000177198,928,0.000186419,928,0.0024,928,0.0025,928,0.012,928,0.0124
929,0.000176705,929,0.000185909,929,0.0024,929,0.0025,929,0.012,929,0.0124
930,0.000176218,930,0.000185396,930,0.0024,930,0.0025,930,0.012,930,0.0123
931,0.000175728,931,0.000184884,931,0.0024,931,0.0025,931,0.0119,931,0.0123
932,0.000175235,932,0.00018437,932,0.0024,932,0.0025,932,0.0119,932,0.0123
933,0.000174743,933,0.000183857,933,0.0024,933,0.0025,933,0.0119,933,0.0123
934,0.000174249,934,0.000183345,934,0.0024,934,0.0025,934,0.0119,934,0.0122
935,0.00017376,935,0.000182831,935,0.0024,935,0.0025,935,0.0118,935,0.0122
936,0.000173265,936,0.000182314,936,0.0024,936,0.0025,936,0.0118,936,0.0122
937,0.000172771,937,0.000181798,937,0.0024,937,0.0025,937,0.0118,937,0.0122
938,0.000172278,938,0.000181284,938,0.0024,938,0.0025,938,0.0118,938,0.0121
939,0.000171783,939,0.000180767,939,0.0024,939,0.0025,939,0.0118,939,0.0121
940,0.00017002,940,0.000178925,940,0.0024,940,0.0024,940,0.0117,940,0.012
941,0.000167792,941,0.000176592,941,0.0023,941,0.0024,941,0.0115,941,0.0119
942,0.000165592,942,0.000174293,942,0.0023,942,0.0024,942,0.0114,942,0.0118
943,0.000163426,943,0.000172028,943,0.0023,943,0.0024,943,0.0113,943,0.0117
944,0.000161291,944,0.000169797,944,0.0023,944,0.0023,944,0.0112,944,0.0116
945,0.000159184,945,0.000167595,945,0.0022,945,0.0023,945,0.0111,945,0.0114
946,0.000157109,946,0.000165425,946,0.0022,946,0.0023,946,0.011,946,0.0113
947,0.000155064,947,0.000163283,947,0.0022,947,0.0023,947,0.0109,947,0.0112
948,0.000153049,948,0.000161176,948,0.0022,948,0.0022,948,0.0108,948,0.0111
949,0.00015106,949,0.000159096,949,0.0021,949,0.0022,949,0.0107,949,0.011
950,0.000149101,950,0.000157044,950,0.0021,950,0.0022,950,0.0106,950,0.0109
951,0.000147167,951,0.000155024,951,0.0021,951,0.0022,951,0.0105,951,0.0108
952,0.000145265,952,0.000153031,952,0.0021,952,0.0021,952,0.0104,952,0.0107
953,0.000143387,953,0.000151067,953,0.002,953,0.0021,953,0.0103,953,0.0106
954,0.000141537,954,0.000149128,954,0.002,954,0.0021,954,0.0102,954,0.0105
955,0.000139711,955,0.000147221,955,0.002,955,0.0021,955,0.0101,955,0.0104
956,0.000137915,956,0.000145338,956,0.002,956,0.002,956,0.01,956,0.0103
957,0.000136141,957,0.000143483,957,0.002,957,0.002,957,0.0099,957,0.0102
958,0.000134391,958,0.000141651,958,0.0019,958,0.002,958,0.0098,958,0.0101
959,0.000132669,959,0.000139846,959,0.0019,959,0.002,959,0.0097,959,0.01
960,0.000130969,960,0.000138067,960,0.0019,960,0.002,960,0.0096,960,0.0099
961,0.000129294,961,0.000136314,961,0.0019,961,0.0019,961,0.0095,961,0.0098
962,0.000127641,962,0.000134583,962,0.0019,962,0.0019,962,0.0094,962,0.0097
963,0.000126014,963,0.000132877,963,0.0018,963,0.0019,963,0.0093,963,0.0096
964,0.000124408,964,0.000131196,964,0.0018,964,0.0019,964,0.0092,964,0.0095
965,0.000122823,965,0.000129539,965,0.0018,965,0.0019,965,0.0091,965,0.0094
966,0.000121263,966,0.000127903,966,0.0018,966,0.0018,966,0.009,966,0.0093
967,0.000119724,967,0.00012629,967,0.0018,967,0.0018,967,0.0089,967,0.0092
968,0.000118206,968,0.000124701,968,0.0017,968,0.0018,968,0.0089,968,0.0091
969,0.000116823,969,0.000123254,969,0.0017,969,0.0018,969,0.0088,969,0.0091
970,0.000115654,970,0.000122028,970,0.0017,970,0.0018,970,0.0087,970,0.009
971,0.000114499,971,0.000120818,971,0.0017,971,0.0018,971,0.0086,971,0.0089
972,0.000113355,972,0.000119624,972,0.0017,972,0.0017,972,0.0086,972,0.0089
973,0.000112228,973,0.00011844,973,0.0017,973,0.0017,973,0.0085,973,0.0088
974,0.000111109,974,0.000117274,974,0.0016,974,0.0017,974,0.0084,974,0.0087
975,0.000110007,975,0.000116118,975,0.0016,975,0.0017,975,0.0084,975,0.0086
976,0.000108918,976,0.000114977,976,0.0016,976,0.0017,976,0.0083,976,0.0086
977,0.00010784,977,0.000113849,977,0.0016,977,0.0017,977,0.0082,977,0.0085
978,0.000106775,978,0.000112735,978,0.0016,978,0.0017,978,0.0082,978,0.0084
979,0.000105723,979,0.000111632,979,0.0016,979,0.0016,979,0.0081,979,0.0084
980,0.000104682,980,0.000110543,980,0.0016,980,0.0016,980,0.008,980,0.0083
981,0.000103653,981,0.000109466,981,0.0016,981,0.0016,981,0.008,981,0.0082
982,0.000102636,982,0.000108403,982,0.0015,982,0.0016,982,0.0079,982,0.0082
983,0.000101632,983,0.000107349,983,0.0015,983,0.0016,983,0.0079,983,0.0081
984,0.00010064,984,0.000106309,984,0.0015,984,0.0016,984,0.0078,984,0.0081
985,9.96575E-05,985,0.000105281,985,0.0015,985,0.0016,985,0.0077,985,0.008
986,9.8687E-05,986,0.000104263,986,0.0015,986,0.0015,986,0.0077,986,0.0079
987,9.77282E-05,987,0.000103259,987,0.0015,987,0.0015,987,0.0076,987,0.0079
988,9.67787E-05,988,0.000102263,988,0.0015,988,0.0015,988,0.0076,988,0.0078
989,9.58407E-05,989,0.000101281,989,0.0015,989,0.0015,989,0.0075,989,0.0077
990,9.49139E-05,990,0.000100311,990,0.0014,990,0.0015,990,0.0074,990,0.0077
991,9.39983E-05,991,9.93505E-05,991,0.0014,991,0.0015,991,0.0074,991,0.0076
992,9.30915E-05,992,9.84011E-05,992,0.0014,992,0.0015,992,0.0073,992,0.0076
993,9.21956E-05,993,9.74608E-05,993,0.0014,993,0.0015,993,0.0073,993,0.0075
994,9.13103E-05,994,9.65339E-05,994,0.0014,994,0.0014,994,0.0072,994,0.0075
995,9.04357E-05,995,9.56159E-05,995,0.0014,995,0.0014,995,0.0072,995,0.0074
996,8.95695E-05,996,9.47087E-05,996,0.0014,996,0.0014,996,0.0071,996,0.0073
997,8.87136E-05,997,9.38102E-05,997,0.0014,997,0.0014,997,0.007,997,0.0073
998,8.78679E-05,998,9.29223E-05,998,0.0013,998,0.0014,998,0.007,998,0.0072
999,8.70302E-05,999,9.2045E-05,999,0.0013,999,0.0014,999,0.0069,999,0.0072
1000,8.62323E-05,1000,9.12074E-05,1000,0.0013,1000,0.0014,1000,0.0069,1000,0.0071
1001,8.56485E-05,1001,9.05962E-05,1001,0.0013,1001,0.0014,1001,0.0068,1001,0.0071
1002,8.50707E-05,1002,8.99912E-05,1002,0.0013,1002,0.0014,1002,0.0068,1002,0.007
1003,8.44967E-05,1003,8.93902E-05,1003,0.0013,1003,0.0014,1003,0.0068,1003,0.007
1004,8.39286E-05,1004,8.87953E-05,1004,0.0013,1004,0.0013,1004,0.0067,1004,0.007
1005,8.33643E-05,1005,8.82043E-05,1005,0.0013,1005,0.0013,1005,0.0067,1005,0.0069
1006,8.28057E-05,1006,8.76173E-05,1006,0.0013,1006,0.0013,1006,0.0067,1006,0.0069
1007,8.22508E-05,1007,8.70362E-05,1007,0.0013,1007,0.0013,1007,0.0066,1007,0.0069
1008,8.16996E-05,1008,8.64609E-05,1008,0.0013,1008,0.0013,1008,0.0066,1008,0.0068
1009,8.1154E-05,1009,8.58895E-05,1009,0.0013,1009,0.0013,1009,0.0065,1009,0.0068
1010,8.06139E-05,1010,8.53218E-05,1010,0.0013,1010,0.0013,1010,0.0065,1010,0.0067
1011,8.00774E-05,1011,8.47598E-05,1011,0.0012,1011,0.0013,1011,0.0065,1011,0.0067
1012,7.95463E-05,1012,8.42015E-05,1012,0.0012,1012,0.0013,1012,0.0064,1012,0.0067
1013,7.90187E-05,1013,8.36489E-05,1013,0.0012,1013,0.0013,1013,0.0064,1013,0.0066
1014,7.84946E-05,1014,8.31017E-05,1014,0.0012,1014,0.0013,1014,0.0064,1014,0.0066
1015,7.79758E-05,1015,8.25563E-05,1015,0.0012,1015,0.0013,1015,0.0063,1015,0.0066
1016,7.74604E-05,1016,8.20182E-05,1016,0.0012,1016,0.0013,1016,0.0063,1016,0.0065
1017,7.69502E-05,1017,8.14817E-05,1017,0.0012,1017,0.0012,1017,0.0063,1017,0.0065
1018,7.64452E-05,1018,8.09525E-05,1018,0.0012,1018,0.0012,1018,0.0062,1018,0.0065
1019,7.59434E-05,1019,8.04248E-05,1019,0.0012,1019,0.0012,1019,0.0062,1019,0.0064
1020,7.54449E-05,1020,7.99024E-05,1020,0.0012,1020,0.0012,1020,0.0062,1020,0.0064
1021,7.49514E-05,1021,7.93853E-05,1021,0.0012,1021,0.0012,1021,0.0061,1021,0.0063
1022,7.44612E-05,1022,7.88715E-05,1022,0.0012,1022,0.0012,1022,0.0061,1022,0.0063
1023,7.39759E-05,1023,7.83628E-05,1023,0.0012,1023,0.0012,1023,0.0061,1023,0.0063
1024,7.34937E-05,1024,7.78574E-05,1024,0.0012,1024,0.0012,1024,0.006,1024,0.0062
1025,7.30163E-05,1025,7.73553E-05,1025,0.0011,1025,0.0012,1025,0.006,1025,0.0062
1026,7.25421E-05,1026,7.68582E-05,1026,0.0011,1026,0.0012,1026,0.006,1026,0.0062
1027,7.20709E-05,1027,7.63642E-05,1027,0.0011,1027,0.0012,1027,0.0059,1027,0.0061
1028,7.16044E-05,1028,7.58752E-05,1028,0.0011,1028,0.0012,1028,0.0059,1028,0.0061
1029,7.11426E-05,1029,7.53894E-05,1029,0.0011,1029,0.0012,1029,0.0059,1029,0.0061
1030,7.06838E-05,1030,7.49083E-05,1030,0.0011,1030,0.0012,1030,0.0058,1030,0.006
1031,7.0228E-05,1031,7.44303E-05,1031,0.0011,1031,0.0012,1031,0.0058,1031,0.006
1032,6.97766E-05,1032,7.39571E-05,1032,0.0011,1032,0.0011,1032,0.0058,1032,0.006
1033,6.93282E-05,1033,7.34869E-05,1033,0.0011,1033,0.0011,1033,0.0057,1033,0.006
1034,6.89192E-05,1034,7.30584E-05,1034,0.0011,1034,0.0011,1034,0.0057,1034,0.0059
1035,6.85236E-05,1035,7.26424E-05,1035,0.0011,1035,0.0011,1035,0.0057,1035,0.0059
1036,6.81287E-05,1036,7.22287E-05,1036,0.0011,1036,0.0011,1036,0.0057,1036,0.0059
1037,6.77376E-05,1037,7.18175E-05,1037,0.0011,1037,0.0011,1037,0.0056,1037,0.0058
1038,6.73504E-05,1038,7.14118E-05,1038,0.0011,1038,0.0011,1038,0.0056,1038,0.0058
1039,6.69653E-05,1039,7.10068E-05,1039,0.0011,1039,0.0011,1039,0.0056,1039,0.0058
1040,6.65825E-05,1040,7.06057E-05,1040,0.0011,1040,0.0011,1040,0.0056,1040,0.0058
1041,6.62034E-05,1041,7.02069E-05,1041,0.0011,1041,0.0011,1041,0.0055,1041,0.0057
1042,6.58264E-05,1042,6.9812E-05,1042,0.001,1042,0.0011,1042,0.0055,1042,0.0057
1043,6.54516E-05,1043,6.94193E-05,1043,0.001,1043,0.0011,1043,0.0055,1043,0.0057
1044,6.50804E-05,1044,6.90287E-05,1044,0.001,1044,0.0011,1044,0.0054,1044,0.0056
1045,6.47113E-05,1045,6.8642E-05,1045,0.001,1045,0.0011,1045,0.0054,1045,0.0056
1046,6.43458E-05,1046,6.82574E-05,1046,0.001,1046,0.0011,1046,0.0054,1046,0.0056
1047,6.39823E-05,1047,6.78766E-05,1047,0.001,1047,0.0011,1047,0.0054,1047,0.0056
1048,6.36209E-05,1048,6.74979E-05,1048,0.001,1048,0.0011,1048,0.0053,1048,0.0055
1049,6.3263E-05,1049,6.71212E-05,1049,0.001,1049,0.0011,1049,0.0053,1049,0.0055
1050,6.29071E-05,1050,6.67483E-05,1050,0.001,1050,0.001,1050,0.0053,1050,0.0055
1051,6.25547E-05,1051,6.63774E-05,1051,0.001,1051,0.001,1051,0.0053,1051,0.0055
1052,6.22042E-05,1052,6.601E-05,1052,0.001,1052,0.001,1052,0.0052,1052,0.0054
1053,6.18557E-05,1053,6.56432E-05,1053,0.001,1053,0.001,1053,0.0052,1053,0.0054
1054,6.15106E-05,1054,6.52815E-05,1054,0.001,1054,0.001,1054,0.0052,1054,0.0054
1055,6.11674E-05,1055,6.49202E-05,1055,0.001,1055,0.001,1055,0.0052,1055,0.0054
1056,6.08261E-05,1056,6.45624E-05,1056,0.001,1056,0.001,1056,0.0051,1056,0.0053
1057,6.04881E-05,1057,6.42081E-05,1057,0.001,1057,0.001,1057,0.0051,1057,0.0053
1058,6.01534E-05,1058,6.38557E-05,1058,0.001,1058,0.001,1058,0.0051,1058,0.0053
1059,5.98191E-05,1059,6.35053E-05,1059,0.001,1059,0.001,1059,0.0051,1059,0.0053
1060,5.94881E-05,1060,6.31568E-05,1060,0.001,1060,0.001,1060,0.005,1060,0.0052
1061,5.91602E-05,1061,6.28116E-05,1061,0.001,1061,0.001,1061,0.005,1061,0.0052
1062,5.88342E-05,1062,6.24698E-05,1062,0.0009,1062,0.001,1062,0.005,1062,0.0052
1063,5.851E-05,1063,6.21284E-05,1063,0.0009,1063,0.001,1063,0.005,1063,0.0052
1064,5.81875E-05,1064,6.17917E-05,1064,0.0009,1064,0.001,1064,0.0049,1064,0.0051
1065,5.78682E-05,1065,6.14554E-05,1065,0.0009,1065,0.001,1065,0.0049,1065,0.0051
1066,5.75519E-05,1066,6.11223E-05,1066,0.0009,1066,0.001,1066,0.0049,1066,0.0051
1067,5.72361E-05,1067,6.07911E-05,1067,0.0009,1067,0.001,1067,0.0049,1067,0.0051
1068,5.69246E-05,1068,6.0463E-05,1068,0.0009,1068,0.001,1068,0.0049,1068,0.005
1069,5.66135E-05,1069,6.01368E-05,1069,0.0009,1069,0.001,1069,0.0048,1069,0.005
1070,5.63054E-05,1070,5.98122E-05,1070,0.0009,1070,0.0009,1070,0.0048,1070,0.005
1071,5.5999E-05,1071,5.94908E-05,1071,0.0009,1071,0.0009,1071,0.0048,1071,0.005
1072,5.56955E-05,1072,5.91711E-05,1072,0.0009,1072,0.0009,1072,0.0048,1072,0.0049
1073,5.53937E-05,1073,5.88532E-05,1073,0.0009,1073,0.0009,1073,0.0047,1073,0.0049
1074,5.50935E-05,1074,5.85383E-05,1074,0.0009,1074,0.0009,1074,0.0047,1074,0.0049
1075,5.47961E-05,1075,5.82251E-05,1075,0.0009,1075,0.0009,1075,0.0047,1075,0.0049
1076,5.45004E-05,1076,5.79135E-05,1076,0.0009,1076,0.0009,1076,0.0047,1076,0.0049
1077,5.42063E-05,1077,5.7605E-05,1077,0.0009,1077,0.0009,1077,0.0047,1077,0.0048
1078,5.3915E-05,1078,5.72981E-05,1078,0.0009,1078,0.0009,1078,0.0046,1078,0.0048
1079,5.36253E-05,1079,5.69941E-05,1079,0.0009,1079,0.0009,1079,0.0046,1079,0.0048
1080,5.33384E-05,1080,5.66918E-05,1080,0.0009,1080,0.0009,1080,0.0046,1080,0.0048
1081,5.30518E-05,1081,5.6391E-05,1081,0.0009,1081,0.0009,1081,0.0046,1081,0.0048
1082,5.27691E-05,1082,5.60932E-05,1082,0.0009,1082,0.0009,1082,0.0046,1082,0.0047
1083,5.24868E-05,1083,5.57969E-05,1083,0.0009,1083,0.0009,1083,0.0045,1083,0.0047
1084,5.22072E-05,1084,5.55022E-05,1084,0.0009,1084,0.0009,1084,0.0045,1084,0.0047
1085,5.19302E-05,1085,5.52103E-05,1085,0.0008,1085,0.0009,1085,0.0045,1085,0.0047
1086,5.16535E-05,1086,5.49199E-05,1086,0.0008,1086,0.0009,1086,0.0045,1086,0.0046
1087,5.13807E-05,1087,5.46324E-05,1087,0.0008,1087,0.0009,1087,0.0045,1087,0.0046
1088,5.11081E-05,1088,5.43463E-05,1088,0.0008,1088,0.0009,1088,0.0044,1088,0.0046
1089,5.08382E-05,1089,5.40617E-05,1089,0.0008,1089,0.0009,1089,0.0044,1089,0.0046
1090,5.05697E-05,1090,5.37799E-05,1090,0.0008,1090,0.0009,1090,0.0044,1090,0.0046
1091,5.03037E-05,1091,5.34995E-05,1091,0.0008,1091,0.0009,1091,0.0044,1091,0.0045
1092,5.00392E-05,1092,5.32206E-05,1092,0.0008,1092,0.0009,1092,0.0044,1092,0.0045
1093,4.9776E-05,1093,5.29432E-05,1093,0.0008,1093,0.0009,1093,0.0043,1093,0.0045
1094,4.95142E-05,1094,5.26684E-05,1094,0.0008,1094,0.0008,1094,0.0043,1094,0.0045
1095,4.9255E-05,1095,5.23962E-05,1095,0.0008,1095,0.0008,1095,0.0043,1095,0.0045
1096,4.89982E-05,1096,5.21243E-05,1096,0.0008,1096,0.0008,1096,0.0043,1096,0.0044
1097,4.87416E-05,1097,5.18549E-05,1097,0.0008,1097,0.0008,1097,0.0043,1097,0.0044
1098,4.84875E-05,1098,5.15882E-05,1098,0.0008,1098,0.0008,1098,0.0042,1098,0.0044
1099,4.82359E-05,1099,5.13216E-05,1099,0.0008,1099,0.0008,1099,0.0042,1099,0.0044
1100,4.79855E-05,1100,5.10587E-05,1100,0.0008,1100,0.0008,1100,0.0042,1100,0.0044
1101,4.77364E-05,1101,5.07961E-05,1101,0.0008,1101,0.0008,1101,0.0042,1101,0.0043
1102,4.74887E-05,1102,5.05359E-05,1102,0.0008,1102,0.0008,1102,0.0042,1102,0.0043
1103,4.72433E-05,1103,5.02771E-05,1103,0.0008,1103,0.0008,1103,0.0041,1103,0.0043
1104,4.69991E-05,1104,5.00196E-05,1104,0.0008,1104,0.0008,1104,0.0041,1104,0.0043
1105,4.67563E-05,1105,4.97645E-05,1105,0.0008,1105,0.0008,1105,0.0041,1105,0.0043
1106,4.65157E-05,1106,4.95108E-05,1106,0.0008,1106,0.0008,1106,0.0041,1106,0.0042
1107,4.62764E-05,1107,4.92584E-05,1107,0.0008,1107,0.0008,1107,0.0041,1107,0.0042
1108,4.60394E-05,1108,4.90083E-05,1108,0.0008,1108,0.0008,1108,0.0041,1108,0.0042
1109,4.58026E-05,1109,4.87596E-05,1109,0.0008,1109,0.0008,1109,0.004,1109,0.0042
1110,4.55691E-05,1110,4.85132E-05,1110,0.0008,1110,0.0008,1110,0.004,1110,0.0042
1111,4.53357E-05,1111,4.8267E-05,1111,0.0008,1111,0.0008,1111,0.004,1111,0.0042
1112,4.51045E-05,1112,4.80231E-05,1112,0.0007,1112,0.0008,1112,0.004,1112,0.0041
1113,4.48745E-05,1113,4.77815E-05,1113,0.0007,1113,0.0008,1113,0.004,1113,0.0041
1114,4.46457E-05,1114,4.75412E-05,1114,0.0007,1114,0.0008,1114,0.0039,1114,0.0041
1115,4.44191E-05,1115,4.73021E-05,1115,0.0007,1115,0.0008,1115,0.0039,1115,0.0041
1116,4.41937E-05,1116,4.70641E-05,1116,0.0007,1116,0.0008,1116,0.0039,1116,0.0041
1117,4.39704E-05,1117,4.68285E-05,1117,0.0007,1117,0.0008,1117,0.0039,1117,0.0041
1118,4.37482E-05,1118,4.6594E-05,1118,0.0007,1118,0.0008,1118,0.0039,1118,0.004
1119,4.35271E-05,1119,4.63607E-05,1119,0.0007,1119,0.0008,1119,0.0039,1119,0.004
1120,4.33072E-05,1120,4.61296E-05,1120,0.0007,1120,0.0008,1120,0.0038,1120,0.004
1121,4.30894E-05,1121,4.58997E-05,1121,0.0007,1121,0.0007,1121,0.0038,1121,0.004
1122,4.28726E-05,1122,4.5672E-05,1122,0.0007,1122,0.0007,1122,0.0038,1122,0.004
1123,4.2658E-05,1123,4.54444E-05,1123,0.0007,1123,0.0007,1123,0.0038,1123,0.0039
1124,4.24444E-05,1124,4.52189E-05,1124,0.0007,1124,0.0007,1124,0.0038,1124,0.0039
1125,4.22318E-05,1125,4.49956E-05,1125,0.0007,1125,0.0007,1125,0.0038,1125,0.0039
1126,4.20204E-05,1126,4.47724E-05,1126,0.0007,1126,0.0007,1126,0.0037,1126,0.0039
1127,4.18109E-05,1127,4.45513E-05,1127,0.0007,1127,0.0007,1127,0.0037,1127,0.0039
1128,4.16083E-05,1128,4.43374E-05,1128,0.0007,1128,0.0007,1128,0.0037,1128,0.0039
1129,4.14066E-05,1129,4.41255E-05,1129,0.0007,1129,0.0007,1129,0.0037,1129,0.0038
1130,4.12069E-05,1130,4.39147E-05,1130,0.0007,1130,0.0007,1130,0.0037,1130,0.0038
1131,4.10081E-05,1131,4.37049E-05,1131,0.0007,1131,0.0007,1131,0.0037,1131,0.0038
1132,4.08113E-05,1132,4.34971E-05,1132,0.0007,1132,0.0007,1132,0.0037,1132,0.0038
1133,4.06144E-05,1133,4.32902E-05,1133,0.0007,1133,0.0007,1133,0.0036,1133,0.0038
1134,4.04203E-05,1134,4.30844E-05,1134,0.0007,1134,0.0007,1134,0.0036,1134,0.0038
1135,4.02263E-05,1135,4.28805E-05,1135,0.0007,1135,0.0007,1135,0.0036,1135,0.0038
1136,4.00341E-05,1136,4.26776E-05,1136,0.0007,1136,0.0007,1136,0.0036,1136,0.0037
1137,3.98428E-05,1137,4.24756E-05,1137,0.0007,1137,0.0007,1137,0.0036,1137,0.0037
1138,3.96524E-05,1138,4.22756E-05,1138,0.0007,1138,0.0007,1138,0.0036,1138,0.0037
1139,3.94639E-05,1139,4.20765E-05,1139,0.0007,1139,0.0007,1139,0.0035,1139,0.0037
1140,3.92762E-05,1140,4.18784E-05,1140,0.0007,1140,0.0007,1140,0.0035,1140,0.0037
1141,3.90895E-05,1141,4.16812E-05,1141,0.0007,1141,0.0007,1141,0.0035,1141,0.0037
1142,3.89045E-05,1142,4.14859E-05,1142,0.0007,1142,0.0007,1142,0.0035,1142,0.0036
1143,3.87204E-05,1143,4.12914E-05,1143,0.0007,1143,0.0007,1143,0.0035,1143,0.0036
1144,3.85372E-05,1144,4.10989E-05,1144,0.0006,1144,0.0007,1144,0.0035,1144,0.0036
1145,3.83557E-05,1145,4.09072E-05,1145,0.0006,1145,0.0007,1145,0.0035,1145,0.0036
1146,3.81751E-05,1146,4.07165E-05,1146,0.0006,1146,0.0007,1146,0.0034,1146,0.0036
1147,3.79953E-05,1147,4.05266E-05,1147,0.0006,1147,0.0007,1147,0.0034,1147,0.0036
1148,3.78164E-05,1148,4.03385E-05,1148,0.0006,1148,0.0007,1148,0.0034,1148,0.0036
1149,3.76392E-05,1149,4.01513E-05,1149,0.0006,1149,0.0007,1149,0.0034,1149,0.0035
1150,3.74628E-05,1150,3.9965E-05,1150,0.0006,1150,0.0007,1150,0.0034,1150,0.0035
1151,3.72881E-05,1151,3.97796E-05,1151,0.0006,1151,0.0007,1151,0.0034,1151,0.0035
1152,3.71142E-05,1152,3.95959E-05,1152,0.0006,1152,0.0007,1152,0.0034,1152,0.0035
1153,3.69411E-05,1153,3.9414E-05,1153,0.0006,1153,0.0007,1153,0.0033,1153,0.0035
1154,3.67688E-05,1154,3.9232E-05,1154,0.0006,1154,0.0007,1154,0.0033,1154,0.0035
1155,3.65982E-05,1155,3.90517E-05,1155,0.0006,1155,0.0006,1155,0.0033,1155,0.0035
1156,3.64284E-05,1156,3.88723E-05,1156,0.0006,1156,0.0006,1156,0.0033,1156,0.0034
1157,3.62593E-05,1157,3.86937E-05,1157,0.0006,1157,0.0006,1157,0.0033,1157,0.0034
1158,3.60919E-05,1158,3.85168E-05,1158,0.0006,1158,0.0006,1158,0.0033,1158,0.0034
1159,3.59253E-05,1159,3.83407E-05,1159,0.0006,1159,0.0006,1159,0.0033,1159,0.0034
1160,3.57594E-05,1160,3.81654E-05,1160,0.0006,1160,0.0006,1160,0.0033,1160,0.0034
1161,3.55943E-05,1161,3.79918E-05,1161,0.0006,1161,0.0006,1161,0.0032,1161,0.0034
1162,3.54307E-05,1162,3.7819E-05,1162,0.0006,1162,0.0006,1162,0.0032,1162,0.0034
1163,3.52679E-05,1163,3.7647E-05,1163,0.0006,1163,0.0006,1163,0.0032,1163,0.0034
1164,3.51067E-05,1164,3.74757E-05,1164,0.0006,1164,0.0006,1164,0.0032,1164,0.0033
1165,3.49454E-05,1165,3.73061E-05,1165,0.0006,1165,0.0006,1165,0.0032,1165,0.0033
1166,3.47856E-05,1166,3.71373E-05,1166,0.0006,1166,0.0006,1166,0.0032,1166,0.0033
1167,3.46274E-05,1167,3.697E-05,1167,0.0006,1167,0.0006,1167,0.0032,1167,0.0033
1168,3.44691E-05,1168,3.68027E-05,1168,0.0006,1168,0.0006,1168,0.0032,1168,0.0033
1169,3.43123E-05,1169,3.6637E-05,1169,0.0006,1169,0.0006,1169,0.0031,1169,0.0033
1170,3.41562E-05,1170,3.6472E-05,1170,0.0006,1170,0.0006,1170,0.0031,1170,0.0033
1171,3.40017E-05,1171,3.63086E-05,1171,0.0006,1171,0.0006,1171,0.0031,1171,0.0032
1172,3.38478E-05,1172,3.6146E-05,1172,0.0006,1172,0.0006,1172,0.0031,1172,0.0032
1173,3.36946E-05,1173,3.5984E-05,1173,0.0006,1173,0.0006,1173,0.0031,1173,0.0032
1174,3.35421E-05,1174,3.58228E-05,1174,0.0006,1174,0.0006,1174,0.0031,1174,0.0032
1175,3.3391E-05,1175,3.56632E-05,1175,0.0006,1175,0.0006,1175,0.0031,1175,0.0032
1176,3.32399E-05,1176,3.55042E-05,1176,0.0006,1176,0.0006,1176,0.0031,1176,0.0032
1177,3.3091E-05,1177,3.5346E-05,1177,0.0006,1177,0.0006,1177,0.003,1177,0.0032
1178,3.2942E-05,1178,3.51884E-05,1178,0.0006,1178,0.0006,1178,0.003,1178,0.0032
1179,3.27944E-05,1179,3.50324E-05,1179,0.0006,1179,0.0006,1179,0.003,1179,0.0031
1180,3.26475E-05,1180,3.48771E-05,1180,0.0006,1180,0.0006,1180,0.003,1180,0.0031
1181,3.25012E-05,1181,3.47232E-05,1181,0.0006,1181,0.0006,1181,0.003,1181,0.0031
1182,3.23564E-05,1182,3.45693E-05,1182,0.0006,1182,0.0006,1182,0.003,1182,0.0031
1183,3.22122E-05,1183,3.44168E-05,1183,0.0006,1183,0.0006,1183,0.003,1183,0.0031
1184,3.20686E-05,1184,3.42657E-05,1184,0.0006,1184,0.0006,1184,0.003,1184,0.0031
1185,3.19264E-05,1185,3.41146E-05,1185,0.0005,1185,0.0006,1185,0.003,1185,0.0031
1186,3.17848E-05,1186,3.39649E-05,1186,0.0005,1186,0.0006,1186,0.0029,1186,0.0031
1187,3.16439E-05,1187,3.38158E-05,1187,0.0005,1187,0.0006,1187,0.0029,1187,0.0031
1188,3.15036E-05,1188,3.36674E-05,1188,0.0005,1188,0.0006,1188,0.0029,1188,0.003
1189,3.13646E-05,1189,3.35205E-05,1189,0.0005,1189,0.0006,1189,0.0029,1189,0.003
1190,3.12263E-05,1190,3.33741E-05,1190,0.0005,1190,0.0006,1190,0.0029,1190,0.003
1191,3.10885E-05,1191,3.32284E-05,1191,0.0005,1191,0.0006,1191,0.0029,1191,0.003
1192,3.09514E-05,1192,3.30834E-05,1192,0.0005,1192,0.0006,1192,0.0029,1192,0.003
1193,3.08156E-05,1193,3.29397E-05,1193,0.0005,1193,0.0006,1193,0.0029,1193,0.003
1194,3.06803E-05,1194,3.27967E-05,1194,0.0005,1194,0.0006,1194,0.0028,1194,0.003
1195,3.05457E-05,1195,3.26543E-05,1195,0.0005,1195,0.0006,1195,0.0028,1195,0.003
1196,3.04124E-05,1196,3.25132E-05,1196,0.0005,1196,0.0005,1196,0.0028,1196,0.003
1197,3.02796E-05,1197,3.23728E-05,1197,0.0005,1197,0.0005,1197,0.0028,1197,0.0029
1198,3.01474E-05,1198,3.22329E-05,1198,0.0005,1198,0.0005,1198,0.0028,1198,0.0029
1199,3.00158E-05,1199,3.20937E-05,1199,0.0005,1199,0.0005,1199,0.0028,1199,0.0029
1200,2.98855E-05,1200,3.19558E-05,1200,0.0005,1200,0.0005,1200,0.0028,1200,0.0029