"Option A is modeled to approximate Materion curve, CaF2 substrate assumed",,,,,,,,,,,
DUET2 A,,,,DUET2 B,,,,DUET2 C,,,
normal AOI,,f/1.25 cone angle avg,,normal AOI,,f/1.25 cone angle avg,,normal AOI,,f/1.25 cone angle avg,
nm,%T,nm,%T,nm,%T,nm,%T,nm,%T,nm,%T
150,1.25052E-05,150,1.04215E-05,150,0.0002,150,0.0002,150,0.0004,150,0.0003
151,2.069E-05,151,1.7372E-05,151,0.0003,151,0.0003,151,0.0006,151,0.0005
152,3.50623E-05,152,2.96633E-05,152,0.0005,152,0.0004,152,0.0009,152,0.0008
153,6.02046E-05,153,5.13192E-05,153,0.0008,153,0.0007,153,0.0014,153,0.0013
154,0.000104932,154,9.01052E-05,154,0.0012,154,0.0011,154,0.0023,154,0.002
155,0.000185144,155,0.000160118,155,0.002,155,0.0018,155,0.0036,155,0.0033
156,0.000330081,156,0.000287382,156,0.0032,156,0.0029,156,0.0058,156,0.0053
157,0.000591317,157,0.000518,157,0.0052,157,0.0047,157,0.0094,157,0.0085
158,0.001057572,158,0.00093143,158,0.0084,158,0.0076,158,0.0151,158,0.0138
159,0.0018876,159,0.00167009,159,0.0137,159,0.0124,159,0.0243,159,0.0222
160,0.003346185,160,0.002971187,160,0.022,160,0.02,160,0.0387,160,0.0355
161,0.005845747,161,0.005203673,161,0.0351,161,0.0318,161,0.0609,161,0.056
162,0.010066767,162,0.008973461,162,0.0551,162,0.05,162,0.0947,162,0.087
163,0.017011006,163,0.015167709,163,0.0851,163,0.0772,163,0.1447,163,0.1331
164,0.027974994,164,0.024922408,164,0.1285,164,0.1162,164,0.2163,164,0.1988
165,0.044731143,165,0.039772235,165,0.189,165,0.1704,165,0.316,165,0.29
166,0.069125773,166,0.061284409,166,0.2696,166,0.2423,166,0.449,166,0.4113
167,0.103364165,167,0.091287224,167,0.3734,167,0.3343,167,0.6217,167,0.5681
168,0.149042457,168,0.130963418,168,0.5009,168,0.4466,168,0.8365,168,0.7625
169,0.207214432,169,0.180863112,169,0.6515,169,0.5786,169,1.0952,169,0.9955
170,0.277351169,170,0.239993788,170,0.8225,170,0.7276,170,1.396,170,1.2653
171,0.356303427,171,0.305147629,171,1.0092,171,0.8883,171,1.7341,171,1.5661
172,0.438712491,172,0.371791965,172,1.2063,172,1.0539,172,2.1034,172,1.8894
173,0.51469506,173,0.432723021,173,1.398,173,1.2067,173,2.4807,173,2.2088
174,0.579722291,174,0.486004175,174,1.5702,174,1.3316,174,2.8484,174,2.5022
175,0.632746862,175,0.532157271,175,1.6996,175,1.4086,175,3.1728,175,2.7354
176,0.677282727,176,0.574169343,176,1.7632,176,1.4257,176,3.4112,176,2.8755
177,0.717909995,177,0.614398292,177,1.7419,177,1.3785,177,3.5169,177,2.8974
178,0.757512842,178,0.652484201,178,1.6412,178,1.2817,178,3.4647,178,2.8021
179,0.796782891,179,0.685709237,179,1.4919,179,1.1613,179,3.2811,179,2.6256
180,0.832051102,180,0.708369739,180,1.3265,180,1.0385,180,3.0169,180,2.41
181,0.853787909,181,0.712492013,181,1.1676,181,0.9258,181,2.7237,181,2.1896
182,0.851490879,182,0.693585492,182,1.0303,182,0.8308,182,2.4444,182,1.9897
183,0.818012613,183,0.652108709,183,0.9161,183,0.7527,183,2.196,183,1.8174
184,0.759294056,184,0.597420334,184,0.8254,184,0.6914,184,1.9907,184,1.6789
185,0.686673045,185,0.538827807,185,0.7549,185,0.6438,185,1.8276,185,1.5719
186,0.612110741,186,0.483403733,186,0.7014,186,0.6077,186,1.7024,186,1.4927
187,0.543450509,187,0.434460202,187,0.6598,187,0.5792,187,1.6081,187,1.4357
188,0.484875232,188,0.393278315,188,0.6276,188,0.5562,188,1.5404,188,1.3976
189,0.436505781,189,0.358905406,189,0.6018,189,0.5363,189,1.4942,189,1.3741
190,0.396597525,190,0.329397273,190,0.5794,190,0.5169,190,1.4631,190,1.3591
191,0.363420984,191,0.303375147,191,0.5589,191,0.4972,191,1.4447,191,1.3503
192,0.334741841,192,0.279170806,192,0.5383,192,0.4758,192,1.4342,192,1.3431
193,0.308368494,193,0.255452407,193,0.5158,193,0.4521,193,1.4254,193,1.3315
194,0.283021873,194,0.23184621,194,0.4911,194,0.4263,194,1.4152,194,1.3133
195,0.257822016,195,0.208343521,195,0.4642,195,0.3991,195,1.3996,195,1.2859
196,0.232396723,196,0.185289155,196,0.4349,196,0.3709,196,1.3735,196,1.2468
197,0.207257378,197,0.163391703,197,0.4047,197,0.3431,197,1.3366,197,1.1978
198,0.183062758,198,0.143238578,198,0.3745,198,0.3165,198,1.2884,198,1.1404
199,0.160690425,199,0.12536318,199,0.3454,199,0.2918,199,1.2303,199,1.0777
200,0.140578854,200,0.109839867,200,0.3182,200,0.2695,200,1.1655,200,1.0129
201,0.123058042,201,0.096678521,201,0.2936,201,0.2498,201,1.0974,201,0.9492
202,0.108093605,202,0.085668271,202,0.2716,202,0.2326,202,1.029,202,0.8885
203,0.095459686,203,0.076515602,203,0.2522,203,0.2177,203,0.9627,203,0.8322
204,0.084880905,204,0.068942972,204,0.2352,204,0.2049,204,0.9,204,0.7809
205,0.076100936,205,0.062723459,205,0.2205,205,0.1941,205,0.8425,205,0.7354
206,0.06886523,206,0.057654074,206,0.208,206,0.1852,206,0.7909,206,0.6956
207,0.062956417,207,0.053564863,207,0.1975,207,0.1779,207,0.7456,207,0.6616
208,0.058129957,208,0.050282863,208,0.1887,208,0.1721,208,0.7062,208,0.633
209,0.054215067,209,0.047685902,209,0.1816,209,0.1676,209,0.6725,209,0.6093
210,0.051070487,210,0.045682514,210,0.176,210,0.1644,210,0.6442,210,0.5903
211,0.048584753,211,0.044192645,211,0.1716,211,0.1624,211,0.6209,211,0.5757
212,0.046668087,212,0.043162839,212,0.1685,212,0.1615,212,0.6022,212,0.5652
213,0.04524598,213,0.042545144,213,0.1666,213,0.1616,213,0.5878,213,0.5585
214,0.044263933,214,0.042312628,214,0.1657,214,0.1629,214,0.5774,214,0.5554
215,0.043685771,215,0.042450225,215,0.166,215,0.1651,215,0.5708,215,0.556
216,0.043484051,216,0.04294672,216,0.1672,216,0.1685,216,0.5678,216,0.56
217,0.043647563,217,0.043813707,217,0.1695,217,0.173,217,0.5684,217,0.5677
218,0.044152978,218,0.045039131,218,0.1729,218,0.1786,218,0.5723,218,0.5788
219,0.045019431,219,0.046664864,219,0.1773,219,0.1856,219,0.5797,219,0.5937
220,0.046241296,220,0.048702359,220,0.1829,220,0.1938,220,0.5905,220,0.6124
221,0.047866316,221,0.051228307,221,0.1898,221,0.2037,221,0.6051,221,0.6356
222,0.049888449,222,0.054252531,222,0.198,222,0.2152,222,0.6234,222,0.663
223,0.052380543,223,0.057885528,223,0.2077,223,0.2286,223,0.646,223,0.6958
224,0.055355401,224,0.062165581,224,0.2189,224,0.2441,224,0.6727,224,0.7338
225,0.058916915,225,0.067251194,225,0.2321,225,0.2622,225,0.7044,225,0.7783
226,0.063088471,226,0.073193076,226,0.2472,226,0.2829,226,0.7412,226,0.8294
227,0.068018962,227,0.080226898,227,0.2647,227,0.307,227,0.784,227,0.8887
228,0.073919667,228,0.08863597,228,0.2852,228,0.3352,228,0.8343,228,0.9578
229,0.080930086,229,0.098675651,229,0.3091,229,0.3682,229,0.8928,229,1.0384
230,0.089166147,230,0.110585962,230,0.3367,230,0.4066,230,0.9601,230,1.1314
231,0.098887182,231,0.124798682,231,0.3687,231,0.4514,231,1.0378,231,1.2393
232,0.110273206,232,0.141644593,232,0.4054,232,0.5034,232,1.1264,232,1.3633
233,0.123705782,233,0.161793101,233,0.4479,233,0.5642,233,1.2283,233,1.5068
234,0.139623976,234,0.186015871,234,0.4973,234,0.6357,234,1.3455,234,1.6734
235,0.158544069,235,0.215273217,235,0.5547,235,0.7198,235,1.4806,235,1.8673
236,0.181200754,236,0.250893841,236,0.622,236,0.8196,236,1.6372,236,2.0942
237,0.208309943,237,0.294293046,237,0.7006,237,0.9379,237,1.8181,237,2.3591
238,0.241129308,238,0.347848392,238,0.7934,238,1.0797,238,2.0292,238,2.6714
239,0.280879472,239,0.414028274,239,0.903,239,1.2495,239,2.2748,239,3.0391
240,0.329533825,240,0.496809624,240,1.0335,240,1.4549,240,2.563,240,3.4754
241,0.38883021,241,0.600012088,241,1.1881,241,1.7022,241,2.8987,241,3.9894
242,0.461859626,242,0.730163299,242,1.3727,242,2.0026,242,3.2929,242,4.5993
243,0.552662504,243,0.896004106,243,1.595,243,2.3704,243,3.7584,243,5.3269
244,0.666146883,244,1.108664139,244,1.8635,244,2.822,244,4.3088,244,6.1947
245,0.809394036,245,1.384267428,245,2.1902,245,3.3806,245,4.9634,245,7.2338
246,0.989988159,246,1.740924752,246,2.5863,246,4.0675,246,5.7368,246,8.4662
247,1.220843513,247,2.208869202,247,3.0719,247,4.9207,247,6.6586,247,9.9359
248,1.516805868,248,2.82338433,248,3.6672,248,5.9766,248,7.7533,248,11.6733
249,1.898628519,249,3.633122153,249,4.3989,249,7.2819,249,9.0529,249,13.7144
250,2.397176436,250,4.7054374,250,5.3058,250,8.8964,250,10.601,250,16.1004
251,3.045720174,251,6.10548263,251,6.4206,251,10.8581,251,12.4212,251,18.825
252,3.899958629,252,7.928116075,252,7.8022,252,13.2314,252,14.5671,252,21.9098
253,5.024119955,253,10.24660512,253,9.5041,253,16.0397,253,17.0661,253,25.3147
254,6.499800097,254,13.10690042,254,11.586,254,19.2779,254,19.9373,254,28.9719
255,8.433930153,255,16.51581464,255,14.1181,255,22.9143,255,23.1964,255,32.8008
256,10.92496363,256,20.37088983,256,17.1371,256,26.8317,256,26.8013,256,36.6554
257,14.06759964,257,24.50699149,257,20.666,257,30.8906,257,30.6939,257,40.405
258,17.88257273,258,28.66553159,258,24.659,258,34.8953,258,34.7552,258,43.8995
259,22.24231566,259,32.52744865,259,28.97,259,38.6194,259,38.8068,259,46.9932
260,26.89304633,260,35.84346612,260,33.4125,260,41.9013,260,42.6926,260,49.6168
261,31.39424188,261,38.4122724,261,37.6967,261,44.5895,261,46.2223,261,51.711
262,35.28824012,262,40.17445556,262,41.5319,262,46.6172,262,49.2493,262,53.2745
263,38.25868159,263,41.21070081,263,44.693,263,47.9992,263,51.691,263,54.3507
264,40.18740837,264,41.6591112,264,47.0229,264,48.7846,264,53.4941,264,54.9858
265,41.22398771,265,41.71382358,265,48.5482,265,49.0984,265,54.7131,265,55.2721
266,41.61213512,266,41.54798824,266,49.383,266,49.0752,266,55.4371,266,55.3032
267,41.58148546,267,41.27432694,267,49.6657,267,48.8192,267,55.7537,267,55.1475
268,41.33043726,268,40.97415444,268,49.5602,268,48.4264,268,55.768,268,54.8729
269,40.99491592,269,40.68834263,269,49.2051,269,47.9641,269,55.5702,269,54.5289
270,40.64994853,270,40.42872079,270,48.7059,270,47.474,270,55.2315,270,54.148
271,40.34223919,271,40.19666292,271,48.1413,271,46.9824,271,54.8132,271,53.7565
272,40.08574874,272,39.98434628,272,47.5664,272,46.5072,272,54.3604,272,53.3716
273,39.87585426,273,39.77315109,273,47.0104,273,46.0508,273,53.9011,273,52.9994
274,39.70178197,274,39.54849853,274,46.4881,274,45.6119,274,53.4551,274,52.6439
275,39.54576671,275,39.29343535,275,46.003,275,45.1842,275,53.0322,275,52.3034
276,39.38401607,276,38.99150514,276,45.5494,276,44.7576,276,52.6337,276,51.9717
277,39.19945239,277,38.63224975,277,45.1213,277,44.3263,277,52.2607,277,51.6455
278,38.97355302,278,38.20850102,278,44.7089,278,43.8823,278,51.909,278,51.3189
279,38.68744064,279,37.71030109,279,44.2991,279,43.4168,279,51.5702,279,50.9832
280,38.32039702,280,37.12444758,280,43.8717,280,42.9139,280,51.2282,280,50.6231
281,37.87651387,281,36.46615722,281,43.4298,281,42.3825,281,50.8877,281,50.2457
282,37.352528,282,35.74127162,282,42.9658,282,41.8211,282,50.5409,282,49.8469
283,36.74937861,283,34.95344612,283,42.4742,283,41.2284,283,50.1823,283,49.4244
284,36.06865934,284,34.11143581,284,41.9508,284,40.6043,284,49.807,284,48.9765
285,35.31994349,285,33.22691343,285,41.3943,285,39.9507,285,49.4106,285,48.5027
286,34.51119519,286,32.30873841,286,40.8039,286,39.269,286,48.9905,286,48.0035
287,33.6503821,287,31.36534003,287,40.1799,287,38.5599,287,48.545,287,47.4793
288,32.74839349,288,30.40604963,288,39.5234,288,37.8249,288,48.0728,288,46.9313
289,31.81632395,289,29.44150455,289,38.8363,289,37.0655,289,47.5739,289,46.361
290,30.86313226,290,28.47934522,290,38.121,290,36.2831,290,47.0498,290,45.7707
291,29.89991819,291,27.52580317,291,37.3797,291,35.4786,291,46.5018,291,45.1623
292,28.93543395,292,26.58765287,292,36.6145,292,34.6531,292,45.9314,292,44.5374
293,27.97757058,293,25.66965312,293,35.8271,293,33.807,293,45.3411,293,43.8978
294,27.0327358,294,24.77479103,294,35.019,294,32.9408,294,44.733,294,43.2448
295,26.09996951,295,23.89846461,295,34.1835,295,32.048,295,44.1005,295,42.5711
296,25.18546653,296,23.0441132,296,33.3235,296,31.1315,296,43.4473,296,41.879
297,24.29685154,297,22.21416534,297,32.446,297,30.1983,297,42.7816,297,41.1757
298,23.43473247,298,21.4076995,298,31.5515,298,29.2499,298,42.1043,298,40.4609
299,22.60060162,299,20.62196284,299,30.6417,299,28.2893,299,41.4166,299,39.7348
300,21.79214601,300,19.85317634,300,29.7169,300,27.3183,300,40.7185,300,38.9967
301,21.00777223,301,19.09721335,301,28.7785,301,26.3397,301,40.0101,301,38.246
302,20.24463728,302,18.34974359,302,27.8296,302,25.3586,302,39.2921,302,37.4832
303,19.50069097,303,17.6088097,303,26.8748,303,24.3811,303,38.5652,303,36.7094
304,18.76938315,304,16.8670837,304,25.9134,304,23.4072,304,37.8269,304,35.9217
305,18.04512937,305,16.12055538,305,24.9483,305,22.4412,305,37.0763,305,35.1201
306,17.3236739,306,15.367386,306,23.9839,306,21.4876,306,36.3131,306,34.3051
307,16.60045532,307,14.6059564,307,23.0238,307,20.5502,307,35.5369,307,33.4771
308,15.87084317,308,13.83502665,308,22.0713,308,19.632,308,34.747,308,32.6365
309,15.13108253,309,13.05629638,309,21.1303,309,18.7363,309,33.9434,309,31.7845
310,14.3820237,310,12.27467494,310,20.2074,310,17.8684,310,33.1277,310,30.9245
311,13.60097367,311,11.47598574,311,19.2828,311,17.0102,311,32.266,311,30.0253
312,12.81209057,312,10.68488863,312,18.3824,312,16.183,312,31.3943,312,29.1222
313,12.01793913,313,9.906494437,313,17.5089,313,15.3878,313,30.5139,313,28.2176
314,11.22483588,314,9.14892358,314,16.6654,314,14.6262,314,29.6278,314,27.3149
315,10.43806507,315,8.416664191,315,15.8525,315,13.8973,315,28.7372,315,26.416
316,9.663845988,316,7.715605251,316,15.0711,316,13.2006,316,27.8444,316,25.5233
317,8.909226496,317,7.050014334,317,14.3217,317,12.5353,317,26.9517,317,24.6392
318,8.184270973,318,6.426729191,318,13.6072,318,11.903,318,26.0653,318,23.7698
319,7.491865984,319,5.845342996,319,12.9247,319,11.3,319,25.1848,319,22.9141
320,6.836597313,320,5.306644566,320,12.2728,320,10.7243,320,24.3122,320,22.0735
321,6.221856638,321,4.811051435,321,11.6506,321,10.1744,321,23.4499,321,21.2497
322,5.650800826,322,4.358429245,322,11.0577,322,9.6494,322,22.6012,322,20.4452
323,5.123774406,323,3.946753475,323,10.492,323,9.147,323,21.7673,323,19.6604
324,4.640555809,324,3.573880279,324,9.9519,324,8.6655,324,20.9498,324,18.8959
325,4.199910155,325,3.237352573,325,9.4358,325,8.2034,325,20.1503,325,18.1523
326,3.800493552,326,2.934877643,326,8.9424,326,7.7596,326,19.3706,326,17.4306
327,3.443340732,327,2.666121886,327,8.4775,327,7.3393,327,18.625,327,16.7432
328,3.122482406,328,2.425827974,328,8.0339,328,6.9364,328,17.9044,328,16.0808
329,2.833739996,329,2.210446459,329,7.6073,329,6.5473,329,17.204,329,15.4384
330,2.574838534,330,2.017762284,330,7.1969,330,6.1716,330,16.5247,330,14.8163
331,2.343635134,331,1.845907779,331,6.8027,331,5.8098,331,15.8683,331,14.2157
332,2.136485748,332,1.691959643,332,6.422,332,5.4601,332,15.232,332,13.6333
333,1.950967344,333,1.554067936,333,6.0542,333,5.1221,333,14.6155,333,13.0687
334,1.784842916,334,1.430441166,334,5.6987,334,4.796,334,14.0183,334,12.521
335,1.636288959,335,1.319684148,335,5.3554,335,4.4821,335,13.4405,335,11.9902
336,1.503038136,336,1.220084753,336,5.023,336,4.1796,336,12.8791,336,11.4733
337,1.382324483,337,1.129613828,337,4.6966,337,3.8847,337,12.3226,337,10.9599
338,1.274148361,338,1.048238243,338,4.3826,338,3.6032,338,11.7838,338,10.4617
339,1.177172207,339,0.97505699,339,4.0815,339,3.3355,339,11.2626,339,9.9786
340,1.090360224,340,0.909305881,340,3.7944,340,3.0827,340,10.7594,340,9.5114
341,1.012255162,341,0.849865109,341,3.5203,341,2.8436,341,10.2717,341,9.0576
342,0.941824535,342,0.796067694,342,3.2593,342,2.6183,342,9.7987,342,8.617
343,0.878273947,343,0.74727422,343,3.0118,343,2.4069,343,9.3398,343,8.1892
344,0.820729417,344,0.702878081,344,2.7776,344,2.209,344,8.8941,344,7.7735
345,0.76858163,345,0.662430011,345,2.5568,345,2.0242,345,8.4612,345,7.37
346,0.721639007,346,0.62583522,346,2.3508,346,1.8538,346,8.0426,346,6.9806
347,0.679250552,347,0.592584108,347,2.1593,347,1.6968,347,7.6381,347,6.6053
348,0.640604522,348,0.562069475,348,1.9808,348,1.5518,348,7.2461,348,6.2426
349,0.60550816,349,0.534146024,349,1.816,349,1.4191,349,6.8689,349,5.8948
350,0.573429459,350,0.508428632,350,1.6637,350,1.2974,350,6.5048,350,5.5607
351,0.543976327,351,0.484618512,351,1.523,351,1.1857,351,6.153,351,5.2393
352,0.516856521,352,0.462476852,352,1.3933,352,1.0833,352,5.8135,352,4.9308
353,0.49182432,353,0.441824709,353,1.274,353,0.9898,353,5.4862,353,4.6352
354,0.468608325,354,0.422464285,354,1.1643,354,0.9042,354,5.1708,354,4.3521
355,0.447054015,355,0.404240665,355,1.0639,355,0.8261,355,4.8677,355,4.0817
356,0.426972594,356,0.387043698,356,0.972,356,0.7549,356,4.5772,356,3.8243
357,0.40819718,357,0.370731937,357,0.8881,357,0.6902,357,4.2992,357,3.5798
358,0.390579999,358,0.355181224,358,0.8116,358,0.6313,358,4.0338,358,3.3479
359,0.374024456,359,0.340329817,359,0.7421,359,0.5779,359,3.7817,359,3.1292
360,0.358368641,360,0.326061859,360,0.679,360,0.5294,360,3.5425,360,2.9231
361,0.343486759,361,0.312269811,361,0.6215,361,0.4853,361,3.3156,361,2.7288
362,0.329260778,362,0.298882165,362,0.5691,362,0.4452,362,3.1006,362,2.5459
363,0.315602184,363,0.285838023,363,0.5215,363,0.4088,363,2.8974,363,2.3742
364,0.302433573,364,0.273092643,364,0.4783,364,0.3756,364,2.7059,364,2.2131
365,0.289494289,365,0.26043539,365,0.4385,365,0.3451,365,2.5237,365,2.0609
366,0.276566772,366,0.247679464,366,0.4015,366,0.3168,366,2.3491,366,1.9156
367,0.263967221,367,0.235158131,367,0.368,367,0.291,367,2.1855,367,1.7801
368,0.251634393,368,0.222858909,368,0.3375,368,0.2676,368,2.0325,368,1.654
369,0.239541078,369,0.210789998,369,0.3099,369,0.2463,369,1.8896,369,1.5368
370,0.227703654,370,0.19899859,370,0.2848,370,0.227,370,1.757,370,1.4283
371,0.2160628,371,0.187464915,371,0.2621,371,0.2094,371,1.6334,371,1.3277
372,0.204616193,372,0.176197605,372,0.2414,372,0.1934,372,1.5185,372,1.2343
373,0.193361497,373,0.165230417,373,0.2225,373,0.1788,373,1.4116,373,1.1477
374,0.182322388,374,0.154585943,374,0.2053,374,0.1654,374,1.3123,374,1.0674
375,0.17150232,375,0.144291251,375,0.1896,375,0.1532,375,1.2201,375,0.993
376,0.160931107,376,0.134369283,376,0.1753,376,0.142,376,1.1345,376,0.924
377,0.150646831,377,0.124856168,377,0.1622,377,0.1318,377,1.0552,377,0.8602
378,0.140679236,378,0.115779055,378,0.1502,378,0.1224,378,0.9817,378,0.8011
379,0.131065986,379,0.107149463,379,0.1393,379,0.1138,379,0.9136,379,0.7465
380,0.121831615,380,0.098987419,380,0.1293,380,0.1059,380,0.8506,380,0.6959
381,0.113047249,381,0.091329273,381,0.1201,381,0.0987,381,0.7925,381,0.6493
382,0.104705622,382,0.084162766,382,0.1118,382,0.0921,382,0.7389,382,0.6063
383,0.096803264,383,0.077458664,383,0.1041,383,0.086,383,0.6892,383,0.5664
384,0.089347005,384,0.071208199,384,0.097,384,0.0804,384,0.6432,384,0.5295
385,0.082339836,385,0.065401845,385,0.0905,385,0.0752,385,0.6006,385,0.4953
386,0.075782687,386,0.060021936,386,0.0845,386,0.0704,386,0.5612,386,0.4636
387,0.069659443,387,0.055045269,387,0.079,387,0.066,387,0.5246,387,0.4342
388,0.063966119,388,0.050455673,388,0.0739,388,0.0619,388,0.4906,388,0.4068
389,0.058697553,389,0.046241296,389,0.0692,389,0.0581,389,0.4592,389,0.3815
390,0.05400575,390,0.042518702,390,0.065,390,0.0548,390,0.4312,390,0.359
391,0.049674099,391,0.039099392,391,0.0612,391,0.0517,391,0.4052,391,0.338
392,0.045681463,392,0.03596251,392,0.0576,392,0.0488,392,0.381,392,0.3185
393,0.04201748,393,0.033094818,393,0.0543,393,0.0461,393,0.3585,393,0.3003
394,0.038657165,394,0.030471933,394,0.0512,394,0.0436,394,0.3376,394,0.2834
395,0.035572141,395,0.028069844,395,0.0484,395,0.0413,395,0.3182,395,0.2676
396,0.032742362,396,0.025870808,396,0.0457,396,0.0391,396,0.3,396,0.2529
397,0.030148798,397,0.023857778,397,0.0432,397,0.0371,397,0.2831,397,0.2391
398,0.027773461,398,0.022015573,398,0.0409,398,0.0352,398,0.2673,398,0.2263
399,0.025598823,399,0.020330123,399,0.0388,399,0.0334,399,0.2526,399,0.2143
400,0.023609675,400,0.018788409,400,0.0367,400,0.0317,400,0.2388,400,0.203
401,0.021788634,401,0.017377208,401,0.0348,401,0.0301,401,0.2259,401,0.1925
402,0.020121947,402,0.01608422,402,0.0331,402,0.0287,402,0.2139,402,0.1826
403,0.018595592,403,0.014899442,403,0.0314,403,0.0273,403,0.2026,403,0.1733
404,0.017197685,404,0.013813063,404,0.0299,404,0.026,404,0.1921,404,0.1646
405,0.015916955,405,0.012816812,405,0.0284,405,0.0248,405,0.1822,405,0.1565
406,0.014744498,406,0.011903372,406,0.027,406,0.0236,406,0.1729,406,0.1488
407,0.013669732,407,0.011064454,407,0.0257,407,0.0226,407,0.1642,407,0.1416
408,0.012683526,408,0.010293664,408,0.0245,408,0.0215,408,0.156,408,0.1349
409,0.011778229,409,0.009584733,409,0.0234,409,0.0206,409,0.1484,409,0.1285
410,0.010946871,410,0.008932232,410,0.0223,410,0.0197,410,0.1412,410,0.1225
411,0.010182631,411,0.008331439,411,0.0213,411,0.0188,411,0.1344,411,0.1168
412,0.009480036,412,0.007777679,412,0.0203,412,0.018,412,0.128,412,0.1115
413,0.008835884,413,0.007269089,413,0.0194,413,0.0173,413,0.122,413,0.1065
414,0.008226593,414,0.006786565,414,0.0186,414,0.0165,414,0.1162,414,0.1017
415,0.007660198,415,0.0063368,415,0.0177,415,0.0158,415,0.1107,415,0.097
416,0.007138879,416,0.005921885,416,0.017,416,0.0151,416,0.1055,416,0.0926
417,0.006658862,417,0.005538983,417,0.0162,417,0.0145,417,0.1006,417,0.0885
418,0.006216558,418,0.005185254,418,0.0155,418,0.0139,418,0.096,418,0.0846
419,0.00580858,419,0.004858028,419,0.0149,419,0.0133,419,0.0917,419,0.0809
420,0.005431253,420,0.004554702,420,0.0142,420,0.0128,420,0.0876,420,0.0774
421,0.005082648,421,0.004273857,421,0.0136,421,0.0123,421,0.0837,421,0.0741
422,0.004760472,422,0.004013655,422,0.0131,422,0.0118,422,0.08,422,0.071
423,0.004462415,423,0.003772159,423,0.0125,423,0.0113,423,0.0765,423,0.0681
424,0.004186297,424,0.003548052,424,0.012,424,0.0109,424,0.0733,424,0.0653
425,0.00393052,425,0.003339873,425,0.0116,425,0.0105,425,0.0701,425,0.0626
426,0.003693176,426,0.003146227,426,0.0111,426,0.0101,426,0.0672,426,0.0601
427,0.003473682,427,0.002966744,427,0.0107,427,0.0097,427,0.0644,427,0.0577
428,0.003269866,428,0.002799561,428,0.0103,428,0.0093,428,0.0618,428,0.0554
429,0.003080279,429,0.002643748,429,0.0099,429,0.009,429,0.0593,429,0.0533
430,0.002903889,430,0.002498389,430,0.0095,430,0.0087,430,0.0569,430,0.0513
431,0.002739555,431,0.002362708,431,0.0091,431,0.0084,431,0.0547,431,0.0493
432,0.002586366,432,0.002235888,432,0.0088,432,0.0081,432,0.0526,432,0.0475
433,0.002443487,433,0.002117337,433,0.0085,433,0.0078,433,0.0505,433,0.0457
434,0.002310309,434,0.002006596,434,0.0082,434,0.0075,434,0.0486,434,0.044
435,0.00218615,435,0.001903093,435,0.0079,435,0.0073,435,0.0468,435,0.0425
436,0.002070094,436,0.001806093,436,0.0076,436,0.007,436,0.045,436,0.0409
437,0.001961462,437,0.001715142,437,0.0074,437,0.0068,437,0.0434,437,0.0395
438,0.00185973,438,0.001629784,438,0.0071,438,0.0066,438,0.0418,438,0.0381
439,0.001764412,439,0.001549601,439,0.0069,439,0.0064,439,0.0403,439,0.0368
440,0.001675059,440,0.00147428,440,0.0066,440,0.0062,440,0.0389,440,0.0355
441,0.001591183,441,0.001403428,441,0.0064,441,0.006,441,0.0375,441,0.0343
442,0.001512342,442,0.001336657,442,0.0062,442,0.0058,442,0.0362,442,0.0332
443,0.001438467,443,0.001274002,443,0.006,443,0.0056,443,0.0349,443,0.0321
444,0.001369967,444,0.00121585,444,0.0058,444,0.0054,444,0.0338,444,0.0311
445,0.001305509,445,0.001160967,445,0.0056,445,0.0053,445,0.0327,445,0.0301
446,0.001244801,446,0.001109175,446,0.0055,446,0.0051,446,0.0316,446,0.0291
447,0.001187572,447,0.001060279,447,0.0053,447,0.005,447,0.0305,447,0.0282
448,0.0011336,448,0.001014051,448,0.0051,448,0.0048,448,0.0296,448,0.0273
449,0.00108268,449,0.000970354,449,0.005,449,0.0047,449,0.0286,449,0.0265
450,0.001034737,450,0.000929138,450,0.0048,450,0.0046,450,0.0277,450,0.0257
451,0.000989487,451,0.000890164,451,0.0047,451,0.0044,451,0.0269,451,0.0249
452,0.000946695,452,0.000853238,452,0.0046,452,0.0043,452,0.026,452,0.0242
453,0.000906212,453,0.000818239,453,0.0044,453,0.0042,453,0.0253,453,0.0235
454,0.000867901,454,0.000785037,454,0.0043,454,0.0041,454,0.0245,454,0.0228
455,0.00083163,455,0.000753546,455,0.0042,455,0.004,455,0.0238,455,0.0222
456,0.000797242,456,0.000723652,456,0.0041,456,0.0039,456,0.0231,456,0.0216
457,0.000764645,457,0.000695264,457,0.004,457,0.0038,457,0.0224,457,0.021
458,0.000733736,458,0.000668298,458,0.0039,458,0.0037,458,0.0218,458,0.0204
459,0.000704417,459,0.000642673,459,0.0038,459,0.0036,459,0.0211,459,0.0198
460,0.000676581,460,0.000618287,460,0.0037,460,0.0035,460,0.0205,460,0.0193
461,0.00065013,461,0.0005951,461,0.0036,461,0.0034,461,0.02,461,0.0188
462,0.000625,462,0.000573007,462,0.0035,462,0.0033,462,0.0194,462,0.0183
463,0.000601077,463,0.000551963,463,0.0034,463,0.0032,463,0.0189,463,0.0178
464,0.000578336,464,0.000531912,464,0.0033,464,0.0032,464,0.0184,464,0.0173
465,0.000556673,465,0.000512791,465,0.0032,465,0.0031,465,0.0179,465,0.0169
466,0.000536056,466,0.00049455,466,0.0031,466,0.003,466,0.0174,466,0.0165
467,0.000516464,467,0.0004772,467,0.0031,467,0.0029,467,0.017,467,0.016
468,0.000497794,468,0.000460638,468,0.003,468,0.0029,468,0.0165,468,0.0157
469,0.000479988,469,0.000444816,469,0.0029,469,0.0028,469,0.0161,469,0.0153
470,0.000462999,470,0.000429695,470,0.0029,470,0.0027,470,0.0157,470,0.0149
471,0.000446786,471,0.000415241,471,0.0028,471,0.0027,471,0.0153,471,0.0145
472,0.000431291,472,0.000401421,472,0.0027,472,0.0026,472,0.0149,472,0.0142
473,0.000416495,473,0.000388186,473,0.0027,473,0.0026,473,0.0145,473,0.0139
474,0.000402346,474,0.000375526,474,0.0026,474,0.0025,474,0.0142,474,0.0135
475,0.000388821,475,0.000363404,475,0.0025,475,0.0025,475,0.0139,475,0.0132
476,0.000375863,476,0.000351771,476,0.0025,476,0.0024,476,0.0135,476,0.0129
477,0.000363521,477,0.000340675,477,0.0024,477,0.0024,477,0.0132,477,0.0126
478,0.000352087,478,0.000330392,478,0.0024,478,0.0023,478,0.0129,478,0.0124
479,0.00034113,479,0.000320524,479,0.0023,479,0.0023,479,0.0126,479,0.0121
480,0.000330613,480,0.00031105,480,0.0023,480,0.0022,480,0.0123,480,0.0118
481,0.000320531,481,0.000301947,481,0.0022,481,0.0022,481,0.0121,481,0.0116
482,0.000310849,482,0.000293191,482,0.0022,482,0.0021,482,0.0118,482,0.0113
483,0.000301557,483,0.00028478,483,0.0021,483,0.0021,483,0.0116,483,0.0111
484,0.000292631,484,0.000276694,484,0.0021,484,0.0021,484,0.0113,484,0.0109
485,0.00028408,485,0.00026893,485,0.0021,485,0.002,485,0.0111,485,0.0107
486,0.000275861,486,0.000261469,486,0.002,486,0.002,486,0.0108,486,0.0105
487,0.000267966,487,0.000254285,487,0.002,487,0.0019,487,0.0106,487,0.0103
488,0.000260369,488,0.000247366,488,0.0019,488,0.0019,488,0.0104,488,0.0101
489,0.000253064,489,0.000240702,489,0.0019,489,0.0019,489,0.0102,489,0.0099
490,0.000246031,490,0.000234283,490,0.0019,490,0.0018,490,0.01,490,0.0097
491,0.00023926,491,0.000228092,491,0.0018,491,0.0018,491,0.0098,491,0.0095
492,0.000232734,492,0.000222121,492,0.0018,492,0.0018,492,0.0096,492,0.0093
493,0.000226454,493,0.000216362,493,0.0018,493,0.0017,493,0.0094,493,0.0091
494,0.000220399,494,0.000210809,494,0.0017,494,0.0017,494,0.0092,494,0.009
495,0.000214566,495,0.000205452,495,0.0017,495,0.0017,495,0.0091,495,0.0088
496,0.000208944,496,0.000200281,496,0.0017,496,0.0017,496,0.0089,496,0.0086
497,0.000203521,497,0.00019529,497,0.0017,497,0.0016,497,0.0087,497,0.0085
498,0.000198285,498,0.000190467,498,0.0016,498,0.0016,498,0.0086,498,0.0083
499,0.000193237,499,0.00018581,499,0.0016,499,0.0016,499,0.0084,499,0.0082
500,0.000188361,500,0.000181305,500,0.0016,500,0.0016,500,0.0083,500,0.0081
501,0.00018365,501,0.000176954,501,0.0015,501,0.0015,501,0.0081,501,0.0079
502,0.000179102,502,0.000172743,502,0.0015,502,0.0015,502,0.008,502,0.0078
503,0.000174707,503,0.000168675,503,0.0015,503,0.0015,503,0.0078,503,0.0076
504,0.000170463,504,0.000164737,504,0.0015,504,0.0015,504,0.0077,504,0.0075
505,0.00016636,505,0.000160927,505,0.0014,505,0.0014,505,0.0075,505,0.0074
506,0.000162394,506,0.000157243,506,0.0014,506,0.0014,506,0.0074,506,0.0073
507,0.000158555,507,0.000153674,507,0.0014,507,0.0014,507,0.0073,507,0.0072
508,0.000154846,508,0.000150217,508,0.0014,508,0.0014,508,0.0072,508,0.007
509,0.000151252,509,0.000146869,509,0.0014,509,0.0013,509,0.0071,509,0.0069
510,0.000147775,510,0.000143625,510,0.0013,510,0.0013,510,0.0069,510,0.0068
511,0.000144408,511,0.000140479,511,0.0013,511,0.0013,511,0.0068,511,0.0067
512,0.00014115,512,0.000137433,512,0.0013,512,0.0013,512,0.0067,512,0.0066
513,0.000137991,513,0.000134478,513,0.0013,513,0.0013,513,0.0066,513,0.0065
514,0.00013493,514,0.00013161,514,0.0013,514,0.0013,514,0.0065,514,0.0064
515,0.000131971,515,0.000128837,515,0.0012,515,0.0012,515,0.0064,515,0.0063
516,0.000129104,516,0.000126148,516,0.0012,516,0.0012,516,0.0063,516,0.0062
517,0.000126328,517,0.000123538,517,0.0012,517,0.0012,517,0.0062,517,0.0061
518,0.000123635,518,0.000121007,518,0.0012,518,0.0012,518,0.0061,518,0.006
519,0.000121021,519,0.00011855,519,0.0012,519,0.0012,519,0.006,519,0.0059
520,0.000118487,520,0.000116164,520,0.0012,520,0.0012,520,0.0059,520,0.0059
521,0.000116027,521,0.000113844,521,0.0011,521,0.0011,521,0.0058,521,0.0058
522,0.00011364,522,0.000111591,522,0.0011,522,0.0011,522,0.0057,522,0.0057
523,0.000111319,523,0.000109403,523,0.0011,523,0.0011,523,0.0057,523,0.0056
524,0.000109069,524,0.000107275,524,0.0011,524,0.0011,524,0.0056,524,0.0055
525,0.000106881,525,0.000105208,525,0.0011,525,0.0011,525,0.0055,525,0.0055
526,0.000104759,526,0.000103198,526,0.0011,526,0.0011,526,0.0054,526,0.0054
527,0.000102695,527,0.000101244,527,0.0011,527,0.0011,527,0.0053,527,0.0053
528,0.000100691,528,9.93436E-05,528,0.001,528,0.001,528,0.0053,528,0.0052
529,9.87416E-05,529,9.74922E-05,529,0.001,529,0.001,529,0.0052,529,0.0052
530,9.68456E-05,530,9.5693E-05,530,0.001,530,0.001,530,0.0051,530,0.0051
531,9.50014E-05,531,9.3942E-05,531,0.001,531,0.001,531,0.0051,531,0.005
532,9.32095E-05,532,9.22359E-05,532,0.001,532,0.001,532,0.005,532,0.005
533,9.1464E-05,533,9.05753E-05,533,0.001,533,0.001,533,0.0049,533,0.0049
534,8.97677E-05,534,8.8959E-05,534,0.001,534,0.001,534,0.0049,534,0.0048
535,8.8115E-05,535,8.73836E-05,535,0.001,535,0.001,535,0.0048,535,0.0048
536,8.65068E-05,536,8.58499E-05,536,0.0009,536,0.0009,536,0.0047,536,0.0047
537,8.49415E-05,537,8.43548E-05,537,0.0009,537,0.0009,537,0.0047,537,0.0047
538,8.3418E-05,538,8.28991E-05,538,0.0009,538,0.0009,538,0.0046,538,0.0046
539,8.19351E-05,539,8.14798E-05,539,0.0009,539,0.0009,539,0.0046,539,0.0046
540,8.04896E-05,540,8.00958E-05,540,0.0009,540,0.0009,540,0.0045,540,0.0045
541,7.90806E-05,541,7.87463E-05,541,0.0009,541,0.0009,541,0.0044,541,0.0044
542,7.77088E-05,542,7.74301E-05,542,0.0009,542,0.0009,542,0.0044,542,0.0044
543,7.63695E-05,543,7.61465E-05,543,0.0009,543,0.0009,543,0.0043,543,0.0043
544,7.50654E-05,544,7.48945E-05,544,0.0009,544,0.0009,544,0.0043,544,0.0043
545,7.37938E-05,545,7.36733E-05,545,0.0008,545,0.0009,545,0.0042,545,0.0042
546,7.25538E-05,546,7.2482E-05,546,0.0008,546,0.0008,546,0.0042,546,0.0042
547,7.13444E-05,547,7.13181E-05,547,0.0008,547,0.0008,547,0.0041,547,0.0041
548,7.01649E-05,548,7.01827E-05,548,0.0008,548,0.0008,548,0.0041,548,0.0041
549,6.90144E-05,549,6.90733E-05,549,0.0008,549,0.0008,549,0.004,549,0.0041
550,6.78922E-05,550,6.79923E-05,550,0.0008,550,0.0008,550,0.004,550,0.004
551,6.67975E-05,551,6.69345E-05,551,0.0008,551,0.0008,551,0.0039,551,0.004
552,6.57279E-05,552,6.59037E-05,552,0.0008,552,0.0008,552,0.0039,552,0.0039
553,6.46845E-05,553,6.48948E-05,553,0.0008,553,0.0008,553,0.0038,553,0.0039
554,6.36649E-05,554,6.39087E-05,554,0.0008,554,0.0008,554,0.0038,554,0.0038
555,6.26686E-05,555,6.29463E-05,555,0.0008,555,0.0008,555,0.0038,555,0.0038
556,6.16964E-05,556,6.20055E-05,556,0.0008,556,0.0008,556,0.0037,556,0.0038
557,6.07463E-05,557,6.10844E-05,557,0.0007,557,0.0008,557,0.0037,557,0.0037
558,5.98191E-05,558,6.01852E-05,558,0.0007,558,0.0007,558,0.0036,558,0.0037
559,5.89115E-05,559,5.93048E-05,559,0.0007,559,0.0007,559,0.0036,559,0.0036
560,5.80256E-05,560,5.84454E-05,560,0.0007,560,0.0007,560,0.0036,560,0.0036
561,5.71584E-05,561,5.76036E-05,561,0.0007,561,0.0007,561,0.0035,561,0.0036
562,5.63119E-05,562,5.67806E-05,562,0.0007,562,0.0007,562,0.0035,562,0.0035
563,5.54843E-05,563,5.59758E-05,563,0.0007,563,0.0007,563,0.0035,563,0.0035
564,5.46966E-05,564,5.5209E-05,564,0.0007,564,0.0007,564,0.0034,564,0.0035
565,5.39523E-05,565,5.44866E-05,565,0.0007,565,0.0007,565,0.0034,565,0.0034
566,5.32243E-05,566,5.37787E-05,566,0.0007,566,0.0007,566,0.0034,566,0.0034
567,5.25122E-05,567,5.3086E-05,567,0.0007,567,0.0007,567,0.0033,567,0.0034
568,5.18143E-05,568,5.24071E-05,568,0.0007,568,0.0007,568,0.0033,568,0.0033
569,5.11305E-05,569,5.17404E-05,569,0.0007,569,0.0007,569,0.0033,569,0.0033
570,5.04615E-05,570,5.10881E-05,570,0.0007,570,0.0007,570,0.0032,570,0.0033
571,4.98058E-05,571,5.04499E-05,571,0.0007,571,0.0007,571,0.0032,571,0.0032
572,4.91632E-05,572,4.9823E-05,572,0.0006,572,0.0007,572,0.0032,572,0.0032
573,4.85344E-05,573,4.92085E-05,573,0.0006,573,0.0007,573,0.0031,573,0.0032
574,4.7917E-05,574,4.8606E-05,574,0.0006,574,0.0007,574,0.0031,574,0.0032
575,4.73151E-05,575,4.80164E-05,575,0.0006,575,0.0006,575,0.0031,575,0.0031
576,4.6724E-05,576,4.74395E-05,576,0.0006,576,0.0006,576,0.0031,576,0.0031
577,4.61456E-05,577,4.68727E-05,577,0.0006,577,0.0006,577,0.003,577,0.0031
578,4.55774E-05,578,4.6317E-05,578,0.0006,578,0.0006,578,0.003,578,0.0031
579,4.50215E-05,579,4.5771E-05,579,0.0006,579,0.0006,579,0.003,579,0.003
580,4.44754E-05,580,4.52366E-05,580,0.0006,580,0.0006,580,0.003,580,0.003
581,4.394E-05,581,4.47105E-05,581,0.0006,581,0.0006,581,0.0029,581,0.003
582,4.3415E-05,582,4.41957E-05,582,0.0006,582,0.0006,582,0.0029,582,0.003
583,4.28993E-05,583,4.36898E-05,583,0.0006,583,0.0006,583,0.0029,583,0.0029
584,4.23936E-05,584,4.31927E-05,584,0.0006,584,0.0006,584,0.0029,584,0.0029
585,4.18977E-05,585,4.27051E-05,585,0.0006,585,0.0006,585,0.0028,585,0.0029
586,4.14114E-05,586,4.2226E-05,586,0.0006,586,0.0006,586,0.0028,586,0.0029
587,4.09336E-05,587,4.17561E-05,587,0.0006,587,0.0006,587,0.0028,587,0.0028
588,4.04641E-05,588,4.12943E-05,588,0.0006,588,0.0006,588,0.0028,588,0.0028
589,4.00046E-05,589,4.08413E-05,589,0.0006,589,0.0006,589,0.0027,589,0.0028
590,3.95531E-05,590,4.03962E-05,590,0.0006,590,0.0006,590,0.0027,590,0.0028
591,3.91093E-05,591,3.99586E-05,591,0.0006,591,0.0006,591,0.0027,591,0.0028
592,3.86741E-05,592,3.95285E-05,592,0.0006,592,0.0006,592,0.0027,592,0.0027
593,3.82464E-05,593,3.91066E-05,593,0.0006,593,0.0006,593,0.0027,593,0.0027
594,3.7826E-05,594,3.8691E-05,594,0.0005,594,0.0006,594,0.0026,594,0.0027
595,3.74128E-05,595,3.82834E-05,595,0.0005,595,0.0006,595,0.0026,595,0.0027
596,3.70075E-05,596,3.78817E-05,596,0.0005,596,0.0006,596,0.0026,596,0.0027
597,3.66092E-05,597,3.74878E-05,597,0.0005,597,0.0006,597,0.0026,597,0.0026
598,3.62176E-05,598,3.71005E-05,598,0.0005,598,0.0005,598,0.0026,598,0.0026
599,3.58327E-05,599,3.67189E-05,599,0.0005,599,0.0005,599,0.0025,599,0.0026
600,3.54544E-05,600,3.63438E-05,600,0.0005,600,0.0005,600,0.0025,600,0.0026
601,3.50825E-05,601,3.59758E-05,601,0.0005,601,0.0005,601,0.0025,601,0.0026
602,3.47168E-05,602,3.56131E-05,602,0.0005,602,0.0005,602,0.0025,602,0.0025
603,3.43582E-05,603,3.52566E-05,603,0.0005,603,0.0005,603,0.0025,603,0.0025
604,3.40048E-05,604,3.4906E-05,604,0.0005,604,0.0005,604,0.0024,604,0.0025
605,3.36574E-05,605,3.45605E-05,605,0.0005,605,0.0005,605,0.0024,605,0.0025
606,3.33158E-05,606,3.42216E-05,606,0.0005,606,0.0005,606,0.0024,606,0.0025
607,3.298E-05,607,3.38875E-05,607,0.0005,607,0.0005,607,0.0024,607,0.0025
608,3.26498E-05,608,3.35583E-05,608,0.0005,608,0.0005,608,0.0024,608,0.0024
609,3.23244E-05,609,3.32346E-05,609,0.0005,609,0.0005,609,0.0024,609,0.0024
610,3.20044E-05,610,3.29162E-05,610,0.0005,610,0.0005,610,0.0023,610,0.0024
611,3.16898E-05,611,3.26024E-05,611,0.0005,611,0.0005,611,0.0023,611,0.0024
612,3.13805E-05,612,3.22939E-05,612,0.0005,612,0.0005,612,0.0023,612,0.0024
613,3.10756E-05,613,3.19897E-05,613,0.0005,613,0.0005,613,0.0023,613,0.0024
614,3.07751E-05,614,3.16906E-05,614,0.0005,614,0.0005,614,0.0023,614,0.0024
615,3.04804E-05,615,3.13957E-05,615,0.0005,615,0.0005,615,0.0023,615,0.0023
616,3.01891E-05,616,3.1105E-05,616,0.0005,616,0.0005,616,0.0023,616,0.0023
617,2.99034E-05,617,3.08191E-05,617,0.0005,617,0.0005,617,0.0022,617,0.0023
618,2.96217E-05,618,3.05373E-05,618,0.0005,618,0.0005,618,0.0022,618,0.0023
619,2.9344E-05,619,3.02601E-05,619,0.0005,619,0.0005,619,0.0022,619,0.0023
620,2.90737E-05,620,2.99896E-05,620,0.0005,620,0.0005,620,0.0022,620,0.0023
621,2.8845E-05,621,2.97612E-05,621,0.0005,621,0.0005,621,0.0022,621,0.0023
622,2.86187E-05,622,2.95359E-05,622,0.0005,622,0.0005,622,0.0022,622,0.0022
623,2.83962E-05,623,2.93137E-05,623,0.0005,623,0.0005,623,0.0022,623,0.0022
624,2.8176E-05,624,2.90944E-05,624,0.0005,624,0.0005,624,0.0022,624,0.0022
625,2.79595E-05,625,2.88775E-05,625,0.0005,625,0.0005,625,0.0021,625,0.0022
626,2.7746E-05,626,2.86642E-05,626,0.0004,626,0.0005,626,0.0021,626,0.0022
627,2.75347E-05,627,2.84531E-05,627,0.0004,627,0.0005,627,0.0021,627,0.0022
628,2.73269E-05,628,2.82449E-05,628,0.0004,628,0.0005,628,0.0021,628,0.0022
629,2.71213E-05,629,2.80395E-05,629,0.0004,629,0.0005,629,0.0021,629,0.0022
630,2.69184E-05,630,2.78368E-05,630,0.0004,630,0.0005,630,0.0021,630,0.0022
631,2.6719E-05,631,2.76363E-05,631,0.0004,631,0.0005,631,0.0021,631,0.0021
632,2.65216E-05,632,2.74385E-05,632,0.0004,632,0.0005,632,0.0021,632,0.0021
633,2.63269E-05,633,2.72433E-05,633,0.0004,633,0.0005,633,0.0021,633,0.0021
634,2.61342E-05,634,2.70508E-05,634,0.0004,634,0.0004,634,0.002,634,0.0021
635,2.59448E-05,635,2.68609E-05,635,0.0004,635,0.0004,635,0.002,635,0.0021
636,2.57579E-05,636,2.66729E-05,636,0.0004,636,0.0004,636,0.002,636,0.0021
637,2.55729E-05,637,2.64874E-05,637,0.0004,637,0.0004,637,0.002,637,0.0021
638,2.53904E-05,638,2.63039E-05,638,0.0004,638,0.0004,638,0.002,638,0.0021
639,2.52104E-05,639,2.61228E-05,639,0.0004,639,0.0004,639,0.002,639,0.0021
640,2.50323E-05,640,2.59436E-05,640,0.0004,640,0.0004,640,0.002,640,0.0021
641,2.48565E-05,641,2.57668E-05,641,0.0004,641,0.0004,641,0.002,641,0.002
642,2.46825E-05,642,2.55918E-05,642,0.0004,642,0.0004,642,0.002,642,0.002
643,2.45115E-05,643,2.54191E-05,643,0.0004,643,0.0004,643,0.002,643,0.002
644,2.43416E-05,644,2.52488E-05,644,0.0004,644,0.0004,644,0.0019,644,0.002
645,2.41746E-05,645,2.50801E-05,645,0.0004,645,0.0004,645,0.0019,645,0.002
646,2.40088E-05,646,2.49132E-05,646,0.0004,646,0.0004,646,0.0019,646,0.002
647,2.38457E-05,647,2.47486E-05,647,0.0004,647,0.0004,647,0.0019,647,0.002
648,2.36843E-05,648,2.45856E-05,648,0.0004,648,0.0004,648,0.0019,648,0.002
649,2.35245E-05,649,2.44242E-05,649,0.0004,649,0.0004,649,0.0019,649,0.002
650,2.33674E-05,650,2.42655E-05,650,0.0004,650,0.0004,650,0.0019,650,0.002
651,2.32119E-05,651,2.41085E-05,651,0.0004,651,0.0004,651,0.0019,651,0.002
652,2.30584E-05,652,2.3953E-05,652,0.0004,652,0.0004,652,0.0019,652,0.0019
653,2.29541E-05,653,2.38484E-05,653,0.0004,653,0.0004,653,0.0019,653,0.0019
654,2.28665E-05,654,2.37613E-05,654,0.0004,654,0.0004,654,0.0019,654,0.0019
655,2.27798E-05,655,2.3675E-05,655,0.0004,655,0.0004,655,0.0019,655,0.0019
656,2.26939E-05,656,2.35896E-05,656,0.0004,656,0.0004,656,0.0019,656,0.0019
657,2.26084E-05,657,2.35044E-05,657,0.0004,657,0.0004,657,0.0019,657,0.0019
658,2.25242E-05,658,2.34202E-05,658,0.0004,658,0.0004,658,0.0018,658,0.0019
659,2.24409E-05,659,2.33367E-05,659,0.0004,659,0.0004,659,0.0018,659,0.0019
660,2.23578E-05,660,2.32541E-05,660,0.0004,660,0.0004,660,0.0018,660,0.0019
661,2.22756E-05,661,2.31718E-05,661,0.0004,661,0.0004,661,0.0018,661,0.0019
662,2.21942E-05,662,2.30903E-05,662,0.0004,662,0.0004,662,0.0018,662,0.0019
663,2.21131E-05,663,2.30096E-05,663,0.0004,663,0.0004,663,0.0018,663,0.0019
664,2.20333E-05,664,2.29293E-05,664,0.0004,664,0.0004,664,0.0018,664,0.0019
665,2.19538E-05,665,2.28497E-05,665,0.0004,665,0.0004,665,0.0018,665,0.0019
666,2.18751E-05,666,2.27709E-05,666,0.0004,666,0.0004,666,0.0018,666,0.0019
667,2.17972E-05,667,2.26929E-05,667,0.0004,667,0.0004,667,0.0018,667,0.0019
668,2.172E-05,668,2.26152E-05,668,0.0004,668,0.0004,668,0.0018,668,0.0019
669,2.16431E-05,669,2.25382E-05,669,0.0004,669,0.0004,669,0.0018,669,0.0019
670,2.1567E-05,670,2.24621E-05,670,0.0004,670,0.0004,670,0.0018,670,0.0019
671,2.14917E-05,671,2.23862E-05,671,0.0004,671,0.0004,671,0.0018,671,0.0019
672,2.14166E-05,672,2.2311E-05,672,0.0004,672,0.0004,672,0.0018,672,0.0019
673,2.13427E-05,673,2.22362E-05,673,0.0004,673,0.0004,673,0.0018,673,0.0019
674,2.12687E-05,674,2.21621E-05,674,0.0004,674,0.0004,674,0.0018,674,0.0019
675,2.11958E-05,675,2.20882E-05,675,0.0004,675,0.0004,675,0.0018,675,0.0019
676,2.11232E-05,676,2.20151E-05,676,0.0004,676,0.0004,676,0.0018,676,0.0018
677,2.10514E-05,677,2.19427E-05,677,0.0004,677,0.0004,677,0.0018,677,0.0018
678,2.09797E-05,678,2.18706E-05,678,0.0004,678,0.0004,678,0.0018,678,0.0018
679,2.09088E-05,679,2.17992E-05,679,0.0004,679,0.0004,679,0.0018,679,0.0018
680,2.08382E-05,680,2.1728E-05,680,0.0004,680,0.0004,680,0.0018,680,0.0018
681,2.07687E-05,681,2.16576E-05,681,0.0004,681,0.0004,681,0.0018,681,0.0018
682,2.0699E-05,682,2.15874E-05,682,0.0004,682,0.0004,682,0.0018,682,0.0018
683,2.06305E-05,683,2.15179E-05,683,0.0004,683,0.0004,683,0.0017,683,0.0018
684,2.05617E-05,684,2.14487E-05,684,0.0004,684,0.0004,684,0.0017,684,0.0018
685,2.04942E-05,685,2.13796E-05,685,0.0004,685,0.0004,685,0.0017,685,0.0018
686,2.04263E-05,686,2.13113E-05,686,0.0004,686,0.0004,686,0.0017,686,0.0018
687,2.03592E-05,687,2.12432E-05,687,0.0004,687,0.0004,687,0.0017,687,0.0018
688,2.02927E-05,688,2.11758E-05,688,0.0004,688,0.0004,688,0.0017,688,0.0018
689,2.02372E-05,689,2.11198E-05,689,0.0004,689,0.0004,689,0.0017,689,0.0018
690,2.02293E-05,690,2.11135E-05,690,0.0004,690,0.0004,690,0.0017,690,0.0018
691,2.02213E-05,691,2.11067E-05,691,0.0004,691,0.0004,691,0.0017,691,0.0018
692,2.02134E-05,692,2.10999E-05,692,0.0004,692,0.0004,692,0.0017,692,0.0018
693,2.02051E-05,693,2.10931E-05,693,0.0004,693,0.0004,693,0.0017,693,0.0018
694,2.01971E-05,694,2.10863E-05,694,0.0004,694,0.0004,694,0.0017,694,0.0018
695,2.01892E-05,695,2.10795E-05,695,0.0004,695,0.0004,695,0.0017,695,0.0018
696,2.01813E-05,696,2.10727E-05,696,0.0004,696,0.0004,696,0.0017,696,0.0018
697,2.0173E-05,697,2.10654E-05,697,0.0004,697,0.0004,697,0.0017,697,0.0018
698,2.01651E-05,698,2.10586E-05,698,0.0004,698,0.0004,698,0.0017,698,0.0018
699,2.01572E-05,699,2.10518E-05,699,0.0004,699,0.0004,699,0.0017,699,0.0018
700,2.01488E-05,700,2.10446E-05,700,0.0004,700,0.0004,700,0.0017,700,0.0018
701,2.0141E-05,701,2.10378E-05,701,0.0004,701,0.0004,701,0.0017,701,0.0018
702,2.01326E-05,702,2.10305E-05,702,0.0004,702,0.0004,702,0.0017,702,0.0018
703,2.01247E-05,703,2.10233E-05,703,0.0004,703,0.0004,703,0.0017,703,0.0018
704,2.01164E-05,704,2.1016E-05,704,0.0004,704,0.0004,704,0.0017,704,0.0018
705,2.0109E-05,705,2.10092E-05,705,0.0004,705,0.0004,705,0.0017,705,0.0018
706,2.01011E-05,706,2.10025E-05,706,0.0004,706,0.0004,706,0.0017,706,0.0018
707,2.00937E-05,707,2.09962E-05,707,0.0004,707,0.0004,707,0.0017,707,0.0018
708,2.00863E-05,708,2.09894E-05,708,0.0004,708,0.0004,708,0.0017,708,0.0018
709,2.00784E-05,709,2.09826E-05,709,0.0004,709,0.0004,709,0.0017,709,0.0018
710,2.0071E-05,710,2.09759E-05,710,0.0004,710,0.0004,710,0.0017,710,0.0018
711,2.00632E-05,711,2.09686E-05,711,0.0004,711,0.0004,711,0.0017,711,0.0018
712,2.00558E-05,712,2.09619E-05,712,0.0004,712,0.0004,712,0.0017,712,0.0018
713,2.0048E-05,713,2.09551E-05,713,0.0004,713,0.0004,713,0.0017,713,0.0018
714,2.00401E-05,714,2.09479E-05,714,0.0004,714,0.0004,714,0.0017,714,0.0018
715,2.00327E-05,715,2.09406E-05,715,0.0004,715,0.0004,715,0.0017,715,0.0018
716,2.00249E-05,716,2.09334E-05,716,0.0004,716,0.0004,716,0.0017,716,0.0018
717,2.0017E-05,717,2.09262E-05,717,0.0004,717,0.0004,717,0.0017,717,0.0018
718,2.00088E-05,718,2.0919E-05,718,0.0004,718,0.0004,718,0.0017,718,0.0018
719,2.00009E-05,719,2.09117E-05,719,0.0004,719,0.0004,719,0.0017,719,0.0018
720,1.99931E-05,720,2.0904E-05,720,0.0004,720,0.0004,720,0.0017,720,0.0018
721,1.99848E-05,721,2.08968E-05,721,0.0004,721,0.0004,721,0.0017,721,0.0018
722,1.9977E-05,722,2.08891E-05,722,0.0004,722,0.0004,722,0.0017,722,0.0018
723,1.99687E-05,723,2.08814E-05,723,0.0004,723,0.0004,723,0.0017,723,0.0018
724,1.99604E-05,724,2.08737E-05,724,0.0004,724,0.0004,724,0.0017,724,0.0018
725,1.99522E-05,725,2.0866E-05,725,0.0004,725,0.0004,725,0.0017,725,0.0018
726,1.99439E-05,726,2.08579E-05,726,0.0004,726,0.0004,726,0.0017,726,0.0018
727,1.99352E-05,727,2.08497E-05,727,0.0004,727,0.0004,727,0.0017,727,0.0018
728,1.99265E-05,728,2.08415E-05,728,0.0004,728,0.0004,728,0.0017,728,0.0018
729,1.99182E-05,729,2.08334E-05,729,0.0004,729,0.0004,729,0.0017,729,0.0018
730,2.0018E-05,730,2.09382E-05,730,0.0004,730,0.0004,730,0.0017,730,0.0018
731,2.01693E-05,731,2.10965E-05,731,0.0004,731,0.0004,731,0.0017,731,0.0018
732,2.03212E-05,732,2.12554E-05,732,0.0004,732,0.0004,732,0.0018,732,0.0018
733,2.04734E-05,733,2.14151E-05,733,0.0004,733,0.0004,733,0.0018,733,0.0018
734,2.06267E-05,734,2.15755E-05,734,0.0004,734,0.0004,734,0.0018,734,0.0019
735,2.07802E-05,735,2.1736E-05,735,0.0004,735,0.0004,735,0.0018,735,0.0019
736,2.09344E-05,736,2.18973E-05,736,0.0004,736,0.0004,736,0.0018,736,0.0019
737,2.10887E-05,737,2.20592E-05,737,0.0004,737,0.0004,737,0.0018,737,0.0019
738,2.12437E-05,738,2.22218E-05,738,0.0004,738,0.0004,738,0.0018,738,0.0019
739,2.13993E-05,739,2.23846E-05,739,0.0004,739,0.0004,739,0.0018,739,0.0019
740,2.15556E-05,740,2.25481E-05,740,0.0004,740,0.0004,740,0.0018,740,0.0019
741,2.17125E-05,741,2.27122E-05,741,0.0004,741,0.0004,741,0.0018,741,0.0019
742,2.18696E-05,742,2.28765E-05,742,0.0004,742,0.0004,742,0.0019,742,0.0019
743,2.20272E-05,743,2.30415E-05,743,0.0004,743,0.0004,743,0.0019,743,0.0019
744,2.21855E-05,744,2.32071E-05,744,0.0004,744,0.0004,744,0.0019,744,0.002
745,2.2344E-05,745,2.33733E-05,745,0.0004,745,0.0004,745,0.0019,745,0.002
746,2.25035E-05,746,2.35396E-05,746,0.0004,746,0.0004,746,0.0019,746,0.002
747,2.26631E-05,747,2.37072E-05,747,0.0004,747,0.0004,747,0.0019,747,0.002
748,2.28234E-05,748,2.38748E-05,748,0.0004,748,0.0005,748,0.0019,748,0.002
749,2.29848E-05,749,2.40436E-05,749,0.0004,749,0.0005,749,0.0019,749,0.002
750,2.31462E-05,750,2.42125E-05,750,0.0004,750,0.0005,750,0.0019,750,0.002
751,2.33083E-05,751,2.4382E-05,751,0.0004,751,0.0005,751,0.0019,751,0.002
752,2.34709E-05,752,2.45522E-05,752,0.0004,752,0.0005,752,0.002,752,0.002
753,2.36336E-05,753,2.47229E-05,753,0.0004,753,0.0005,753,0.002,753,0.002
754,2.37974E-05,754,2.48937E-05,754,0.0004,754,0.0005,754,0.002,754,0.0021
755,2.39613E-05,755,2.50651E-05,755,0.0005,755,0.0005,755,0.002,755,0.0021
756,2.41257E-05,756,2.52371E-05,756,0.0005,756,0.0005,756,0.002,756,0.0021
757,2.42907E-05,757,2.54097E-05,757,0.0005,757,0.0005,757,0.002,757,0.0021
758,2.44563E-05,758,2.55829E-05,758,0.0005,758,0.0005,758,0.002,758,0.0021
759,2.46218E-05,759,2.57561E-05,759,0.0005,759,0.0005,759,0.002,759,0.0021
760,2.47885E-05,760,2.59304E-05,760,0.0005,760,0.0005,760,0.002,760,0.0021
761,2.49551E-05,761,2.61048E-05,761,0.0005,761,0.0005,761,0.002,761,0.0021
762,2.51223E-05,762,2.62797E-05,762,0.0005,762,0.0005,762,0.0021,762,0.0021
763,2.52901E-05,763,2.64551E-05,763,0.0005,763,0.0005,763,0.0021,763,0.0022
764,2.54583E-05,764,2.66312E-05,764,0.0005,764,0.0005,764,0.0021,764,0.0022
765,2.56265E-05,765,2.68071E-05,765,0.0005,765,0.0005,765,0.0021,765,0.0022
766,2.57959E-05,766,2.69842E-05,766,0.0005,766,0.0005,766,0.0021,766,0.0022
767,2.59651E-05,767,2.71613E-05,767,0.0005,767,0.0005,767,0.0021,767,0.0022
768,2.61355E-05,768,2.73388E-05,768,0.0005,768,0.0005,768,0.0021,768,0.0022
769,2.63057E-05,769,2.75169E-05,769,0.0005,769,0.0005,769,0.0021,769,0.0022
770,2.64765E-05,770,2.76956E-05,770,0.0005,770,0.0005,770,0.0021,770,0.0022
771,2.66477E-05,771,2.78747E-05,771,0.0005,771,0.0005,771,0.0022,771,0.0022
772,2.68188E-05,772,2.80537E-05,772,0.0005,772,0.0005,772,0.0022,772,0.0023
773,2.69911E-05,773,2.82338E-05,773,0.0005,773,0.0005,773,0.0022,773,0.0023
774,2.71631E-05,774,2.84138E-05,774,0.0005,774,0.0005,774,0.0022,774,0.0023
775,2.73773E-05,775,2.86372E-05,775,0.0005,775,0.0005,775,0.0022,775,0.0023
776,2.80169E-05,776,2.93049E-05,776,0.0005,776,0.0005,776,0.0022,776,0.0023
777,2.86695E-05,777,2.99861E-05,777,0.0005,777,0.0005,777,0.0023,777,0.0024
778,2.93359E-05,778,3.0681E-05,778,0.0005,778,0.0006,778,0.0023,778,0.0024
779,3.00158E-05,779,3.13906E-05,779,0.0005,779,0.0006,779,0.0024,779,0.0024
780,3.071E-05,780,3.21144E-05,780,0.0006,780,0.0006,780,0.0024,780,0.0025
781,3.14181E-05,781,3.28526E-05,781,0.0006,781,0.0006,781,0.0024,781,0.0025
782,3.2141E-05,782,3.36062E-05,782,0.0006,782,0.0006,782,0.0025,782,0.0026
783,3.28783E-05,783,3.43756E-05,783,0.0006,783,0.0006,783,0.0025,783,0.0026
784,3.36302E-05,784,3.51601E-05,784,0.0006,784,0.0006,784,0.0026,784,0.0027
785,3.43985E-05,785,3.596E-05,785,0.0006,785,0.0006,785,0.0026,785,0.0027
786,3.51811E-05,786,3.67765E-05,786,0.0006,786,0.0006,786,0.0026,786,0.0027
787,3.59799E-05,787,3.76097E-05,787,0.0006,787,0.0007,787,0.0027,787,0.0028
788,3.67951E-05,788,3.84592E-05,788,0.0006,788,0.0007,788,0.0027,788,0.0028
789,3.76262E-05,789,3.93251E-05,789,0.0007,789,0.0007,789,0.0028,789,0.0029
790,3.84733E-05,790,4.02087E-05,790,0.0007,790,0.0007,790,0.0028,790,0.0029
791,3.93378E-05,791,4.11102E-05,791,0.0007,791,0.0007,791,0.0029,791,0.003
792,4.02198E-05,792,4.20291E-05,792,0.0007,792,0.0007,792,0.0029,792,0.003
793,4.11188E-05,793,4.29665E-05,793,0.0007,793,0.0007,793,0.003,793,0.0031
794,4.20359E-05,794,4.39218E-05,794,0.0007,794,0.0007,794,0.003,794,0.0031
795,4.30229E-05,795,4.495E-05,795,0.0007,795,0.0008,795,0.0031,795,0.0032
796,4.42181E-05,796,4.61955E-05,796,0.0008,796,0.0008,796,0.0031,796,0.0033
797,4.54454E-05,797,4.74734E-05,797,0.0008,797,0.0008,797,0.0032,797,0.0033
798,4.67036E-05,798,4.87832E-05,798,0.0008,798,0.0008,798,0.0033,798,0.0034
799,4.79943E-05,799,5.01268E-05,799,0.0008,799,0.0008,799,0.0033,799,0.0035
800,4.93185E-05,800,5.15051E-05,800,0.0008,800,0.0009,800,0.0034,800,0.0035
801,5.06769E-05,801,5.29188E-05,801,0.0008,801,0.0009,801,0.0035,801,0.0036
802,5.20691E-05,802,5.43676E-05,802,0.0009,802,0.0009,802,0.0035,802,0.0037
803,5.34983E-05,803,5.58547E-05,803,0.0009,803,0.0009,803,0.0036,803,0.0038
804,5.49629E-05,804,5.73786E-05,804,0.0009,804,0.0009,804,0.0037,804,0.0038
805,5.64651E-05,805,5.89413E-05,805,0.0009,805,0.001,805,0.0038,805,0.0039
806,5.80043E-05,806,6.05425E-05,806,0.0009,806,0.001,806,0.0038,806,0.004
807,5.9584E-05,807,6.21856E-05,807,0.001,807,0.001,807,0.0039,807,0.0041
808,6.12026E-05,808,6.38705E-05,808,0.001,808,0.001,808,0.004,808,0.0042
809,6.28637E-05,809,6.55964E-05,809,0.001,809,0.001,809,0.0041,809,0.0042
810,6.45654E-05,810,6.73659E-05,810,0.001,810,0.0011,810,0.0042,810,0.0043
811,6.63101E-05,811,6.91799E-05,811,0.001,811,0.0011,811,0.0042,811,0.0044
812,6.80973E-05,812,7.10395E-05,812,0.0011,812,0.0011,812,0.0043,812,0.0045
813,6.9931E-05,813,7.29458E-05,813,0.0011,813,0.0011,813,0.0044,813,0.0046
814,7.18108E-05,814,7.4898E-05,814,0.0011,814,0.0012,814,0.0045,814,0.0047
815,7.37361E-05,815,7.69006E-05,815,0.0011,815,0.0012,815,0.0046,815,0.0048
816,7.56171E-05,816,7.88551E-05,816,0.0012,816,0.0012,816,0.0047,816,0.0049
817,7.73286E-05,817,8.06343E-05,817,0.0012,817,0.0012,817,0.0048,817,0.0049
818,7.9077E-05,818,8.24499E-05,818,0.0012,818,0.0013,818,0.0048,818,0.005
819,8.08612E-05,819,8.43024E-05,819,0.0012,819,0.0013,819,0.0049,819,0.0051
820,8.26818E-05,820,8.61926E-05,820,0.0013,820,0.0013,820,0.005,820,0.0052
821,8.45415E-05,821,8.81231E-05,821,0.0013,821,0.0013,821,0.0051,821,0.0053
822,8.64371E-05,822,9.00928E-05,822,0.0013,822,0.0013,822,0.0052,822,0.0054
823,8.83731E-05,823,9.21022E-05,823,0.0013,823,0.0014,823,0.0053,823,0.0055
824,9.03504E-05,824,9.41543E-05,824,0.0014,824,0.0014,824,0.0054,824,0.0056
825,9.23655E-05,825,9.62476E-05,825,0.0014,825,0.0014,825,0.0055,825,0.0057
826,9.44235E-05,826,9.8383E-05,826,0.0014,826,0.0015,826,0.0055,826,0.0058
827,9.65228E-05,827,0.000100561,827,0.0014,827,0.0015,827,0.0056,827,0.0058
828,9.86643E-05,828,0.000102785,828,0.0015,828,0.0015,828,0.0057,828,0.0059
829,0.000100851,829,0.000105053,829,0.0015,829,0.0015,829,0.0058,829,0.006
830,0.000103081,830,0.000107367,830,0.0015,830,0.0016,830,0.0059,830,0.0061
831,0.000105356,831,0.000109729,831,0.0015,831,0.0016,831,0.006,831,0.0062
832,0.000107679,832,0.000112135,832,0.0016,832,0.0016,832,0.0061,832,0.0064
833,0.000110047,833,0.000114594,833,0.0016,833,0.0016,833,0.0062,833,0.0065
834,0.000112463,834,0.000117098,834,0.0016,834,0.0017,834,0.0063,834,0.0066
835,0.000114926,835,0.000119655,835,0.0016,835,0.0017,835,0.0064,835,0.0067
836,0.000117441,836,0.000122262,836,0.0017,836,0.0017,836,0.0066,836,0.0068
837,0.000120005,837,0.000124919,837,0.0017,837,0.0018,837,0.0067,837,0.0069
838,0.000122611,838,0.000127623,838,0.0017,838,0.0018,838,0.0068,838,0.007
839,0.000125248,839,0.000130353,839,0.0018,839,0.0018,839,0.0069,839,0.0071
840,0.000127935,840,0.000133137,840,0.0018,840,0.0019,840,0.007,840,0.0072
841,0.000130674,841,0.000135975,841,0.0018,841,0.0019,841,0.0071,841,0.0074
842,0.000133466,842,0.000138867,842,0.0019,842,0.0019,842,0.0072,842,0.0075
843,0.000136314,843,0.000141814,843,0.0019,843,0.002,843,0.0074,843,0.0076
844,0.000139216,844,0.00014482,844,0.0019,844,0.002,844,0.0075,844,0.0077
845,0.000142177,845,0.000147887,845,0.002,845,0.002,845,0.0076,845,0.0079
846,0.000145194,846,0.000151008,846,0.002,846,0.0021,846,0.0077,846,0.008
847,0.000148269,847,0.000154191,847,0.002,847,0.0021,847,0.0078,847,0.0081
848,0.000151405,848,0.000157438,848,0.0021,848,0.0021,848,0.008,848,0.0082
849,0.0001546,849,0.000160746,849,0.0021,849,0.0022,849,0.0081,849,0.0084
850,0.000157856,850,0.000164116,850,0.0021,850,0.0022,850,0.0082,850,0.0085
851,0.00016118,851,0.000167552,851,0.0022,851,0.0023,851,0.0084,851,0.0087
852,0.000164562,852,0.000171053,852,0.0022,852,0.0023,852,0.0085,852,0.0088
853,0.000168012,853,0.000174622,853,0.0023,853,0.0023,853,0.0086,853,0.0089
854,0.00017153,854,0.000178263,854,0.0023,854,0.0024,854,0.0088,854,0.0091
855,0.000175114,855,0.000181966,855,0.0023,855,0.0024,855,0.0089,855,0.0092
856,0.000178764,856,0.000185746,856,0.0024,856,0.0025,856,0.0091,856,0.0094
857,0.000182486,857,0.000189592,857,0.0024,857,0.0025,857,0.0092,857,0.0095
858,0.000186277,858,0.000193513,858,0.0025,858,0.0025,858,0.0094,858,0.0097
859,0.000190143,859,0.00019751,859,0.0025,859,0.0026,859,0.0095,859,0.0098
860,0.00019408,860,0.000201577,860,0.0025,860,0.0026,860,0.0097,860,0.01
861,0.000198089,861,0.000205726,861,0.0026,861,0.0027,861,0.0098,861,0.0101
862,0.000202176,862,0.000209947,862,0.0026,862,0.0027,862,0.01,862,0.0103
863,0.000206343,863,0.000214255,863,0.0027,863,0.0028,863,0.0101,863,0.0105
864,0.000210586,864,0.000218635,864,0.0027,864,0.0028,864,0.0103,864,0.0106
865,0.000214907,865,0.0002231,865,0.0028,865,0.0029,865,0.0105,865,0.0108
866,0.000219311,866,0.000227651,866,0.0028,866,0.0029,866,0.0106,866,0.011
867,0.000223795,867,0.000232284,867,0.0029,867,0.0029,867,0.0108,867,0.0112
868,0.00022836,868,0.000237001,868,0.0029,868,0.003,868,0.011,868,0.0113
869,0.000233018,869,0.000241808,869,0.003,869,0.003,869,0.0111,869,0.0115
870,0.000237755,870,0.000246706,870,0.003,870,0.0031,870,0.0113,870,0.0117
871,0.000242583,871,0.000251692,871,0.0031,871,0.0032,871,0.0115,871,0.0119
872,0.000247503,872,0.000256767,872,0.0031,872,0.0032,872,0.0117,872,0.0121
873,0.000252511,873,0.000261939,873,0.0032,873,0.0033,873,0.0119,873,0.0122
874,0.000257614,874,0.000267208,874,0.0032,874,0.0033,874,0.012,874,0.0124
875,0.000262809,875,0.000272571,875,0.0033,875,0.0034,875,0.0122,875,0.0126
876,0.000268096,876,0.000278029,876,0.0033,876,0.0034,876,0.0124,876,0.0128
877,0.000273489,877,0.000283589,877,0.0034,877,0.0035,877,0.0126,877,0.013
878,0.000278972,878,0.000289248,878,0.0034,878,0.0035,878,0.0128,878,0.0132
879,0.000284557,879,0.000295012,879,0.0035,879,0.0036,879,0.013,879,0.0134
880,0.000290249,880,0.000300885,880,0.0035,880,0.0037,880,0.0132,880,0.0136
881,0.00029604,881,0.00030686,881,0.0036,881,0.0037,881,0.0134,881,0.0138
882,0.000301933,882,0.000312939,882,0.0037,882,0.0038,882,0.0136,882,0.0141
883,0.000307936,883,0.000319132,883,0.0037,883,0.0038,883,0.0138,883,0.0143
884,0.000314051,884,0.000325432,884,0.0038,884,0.0039,884,0.0141,884,0.0145
885,0.000320273,885,0.000331849,885,0.0038,885,0.004,885,0.0143,885,0.0147
886,0.000324758,886,0.000336473,886,0.0039,886,0.004,886,0.0144,886,0.0149
887,0.000326392,887,0.000338143,887,0.0039,887,0.004,887,0.0145,887,0.0149
888,0.00032802,888,0.000339805,888,0.0039,888,0.004,888,0.0146,888,0.015
889,0.000329648,889,0.000341476,889,0.0039,889,0.0041,889,0.0146,889,0.0151
890,0.000331268,890,0.000343139,890,0.004,890,0.0041,890,0.0147,890,0.0152
891,0.000332897,891,0.000344802,891,0.004,891,0.0041,891,0.0148,891,0.0152
892,0.000334518,892,0.000346466,892,0.004,892,0.0041,892,0.0148,892,0.0153
893,0.00033614,893,0.000348129,893,0.004,893,0.0041,893,0.0149,893,0.0154
894,0.000337761,894,0.000349784,894,0.004,894,0.0042,894,0.015,894,0.0154
895,0.000339383,895,0.000351439,895,0.004,895,0.0042,895,0.0151,895,0.0155
896,0.000341004,896,0.000353094,896,0.0041,896,0.0042,896,0.0151,896,0.0156
897,0.000342618,897,0.000354748,897,0.0041,897,0.0042,897,0.0152,897,0.0157
898,0.000344231,898,0.000356402,898,0.0041,898,0.0042,898,0.0153,898,0.0157
899,0.000345844,899,0.000358055,899,0.0041,899,0.0042,899,0.0153,899,0.0158
900,0.000347456,900,0.0003597,900,0.0041,900,0.0043,900,0.0154,900,0.0159
901,0.000349068,901,0.000361343,901,0.0042,901,0.0043,901,0.0155,901,0.0159
902,0.000350671,902,0.000362986,902,0.0042,902,0.0043,902,0.0155,902,0.016
903,0.000352274,903,0.000364628,903,0.0042,903,0.0043,903,0.0156,903,0.0161
904,0.000353875,904,0.000366269,904,0.0042,904,0.0043,904,0.0157,904,0.0162
905,0.000355476,905,0.0003679,905,0.0042,905,0.0043,905,0.0158,905,0.0162
906,0.000357075,906,0.00036953,906,0.0042,906,0.0044,906,0.0158,906,0.0163
907,0.000358674,907,0.000371168,907,0.0043,907,0.0044,907,0.0159,907,0.0164
908,0.000360263,908,0.000372786,908,0.0043,908,0.0044,908,0.016,908,0.0164
909,0.000361851,909,0.000374412,909,0.0043,909,0.0044,909,0.016,909,0.0165
910,0.000363438,910,0.000376036,910,0.0043,910,0.0044,910,0.0161,910,0.0166
911,0.000365023,911,0.00037765,911,0.0043,911,0.0045,911,0.0162,911,0.0166
912,0.000365847,912,0.000378486,912,0.0043,912,0.0045,912,0.0162,912,0.0167
913,0.000365208,913,0.000377807,913,0.0043,913,0.0045,913,0.0162,913,0.0167
914,0.000364552,914,0.00037712,914,0.0043,914,0.0045,914,0.0162,914,0.0167
915,0.000363898,915,0.000376426,915,0.0043,915,0.0045,915,0.0162,915,0.0167
916,0.000363237,916,0.000375734,916,0.0043,916,0.0044,916,0.0162,916,0.0167
917,0.000362568,917,0.000375025,917,0.0043,917,0.0044,917,0.0162,917,0.0167
918,0.000361893,918,0.000374317,918,0.0043,918,0.0044,918,0.0162,918,0.0167
919,0.00036121,919,0.000373603,919,0.0043,919,0.0044,919,0.0162,919,0.0167
920,0.000360529,920,0.000372881,920,0.0043,920,0.0044,920,0.0162,920,0.0166
921,0.000359832,921,0.000372152,921,0.0043,921,0.0044,921,0.0162,921,0.0166
922,0.000359137,922,0.000371415,922,0.0043,922,0.0044,922,0.0162,922,0.0166
923,0.000358435,923,0.000370672,923,0.0043,923,0.0044,923,0.0162,923,0.0166
924,0.000357726,924,0.00036993,924,0.0043,924,0.0044,924,0.0162,924,0.0166
925,0.000357018,925,0.000369182,925,0.0043,925,0.0044,925,0.0162,925,0.0166
926,0.000356295,926,0.000368426,926,0.0043,926,0.0044,926,0.0161,926,0.0166
927,0.000355574,927,0.000367663,927,0.0043,927,0.0044,927,0.0161,927,0.0166
928,0.000354838,928,0.000366893,928,0.0043,928,0.0044,928,0.0161,928,0.0166
929,0.000354103,929,0.000366126,929,0.0043,929,0.0044,929,0.0161,929,0.0166
930,0.00035337,930,0.000365342,930,0.0043,930,0.0044,930,0.0161,930,0.0166
931,0.000352622,931,0.000364561,931,0.0043,931,0.0044,931,0.0161,931,0.0166
932,0.000351868,932,0.000363773,932,0.0042,932,0.0044,932,0.0161,932,0.0165
933,0.000351115,933,0.000362978,933,0.0042,933,0.0044,933,0.0161,933,0.0165
934,0.000350356,934,0.000362185,934,0.0042,934,0.0044,934,0.0161,934,0.0165
935,0.000349591,935,0.000361377,935,0.0042,935,0.0043,935,0.0161,935,0.0165
936,0.000348819,936,0.00036057,936,0.0042,936,0.0043,936,0.0161,936,0.0165
937,0.000348041,937,0.000359758,937,0.0042,937,0.0043,937,0.0161,937,0.0165
938,0.000347264,938,0.000358938,938,0.0042,938,0.0043,938,0.016,938,0.0165
939,0.000346481,939,0.000358113,939,0.0042,939,0.0043,939,0.016,939,0.0165
940,0.000342918,940,0.000354438,940,0.0042,940,0.0043,940,0.0159,940,0.0164
941,0.000338337,941,0.000349704,941,0.0041,941,0.0042,941,0.0158,941,0.0162
942,0.000333818,942,0.00034504,942,0.0041,942,0.0042,942,0.0156,942,0.0161
943,0.000329367,943,0.00034044,943,0.004,943,0.0042,943,0.0155,943,0.0159
944,0.000324968,944,0.0003359,944,0.004,944,0.0041,944,0.0154,944,0.0158
945,0.000320634,945,0.000331421,945,0.004,945,0.0041,945,0.0152,945,0.0156
946,0.000316366,946,0.000327009,946,0.0039,946,0.004,946,0.0151,946,0.0155
947,0.000312148,947,0.000322656,947,0.0039,947,0.004,947,0.0149,947,0.0153
948,0.000307992,948,0.000318361,948,0.0038,948,0.0039,948,0.0148,948,0.0152
949,0.000303893,949,0.00031413,949,0.0038,949,0.0039,949,0.0147,949,0.0151
950,0.000299847,950,0.000309949,950,0.0038,950,0.0039,950,0.0145,950,0.0149
951,0.000295856,951,0.00030583,951,0.0037,951,0.0038,951,0.0144,951,0.0148
952,0.000291924,952,0.000301773,952,0.0037,952,0.0038,952,0.0143,952,0.0147
953,0.000288045,953,0.000297762,953,0.0036,953,0.0037,953,0.0141,953,0.0145
954,0.000284217,954,0.000293812,954,0.0036,954,0.0037,954,0.014,954,0.0144
955,0.000280446,955,0.000289915,955,0.0036,955,0.0037,955,0.0139,955,0.0143
956,0.000276726,956,0.000286075,956,0.0035,956,0.0036,956,0.0138,956,0.0141
957,0.000273055,957,0.000282286,957,0.0035,957,0.0036,957,0.0136,957,0.014
958,0.000269439,958,0.000278548,958,0.0035,958,0.0035,958,0.0135,958,0.0139
959,0.00026587,959,0.000274859,959,0.0034,959,0.0035,959,0.0134,959,0.0137
960,0.000262349,960,0.000271225,960,0.0034,960,0.0035,960,0.0133,960,0.0136
961,0.000258875,961,0.000267639,961,0.0033,961,0.0034,961,0.0131,961,0.0135
962,0.000255452,962,0.000264101,962,0.0033,962,0.0034,962,0.013,962,0.0134
963,0.000252075,963,0.000260615,963,0.0033,963,0.0034,963,0.0129,963,0.0132
964,0.000248743,964,0.000257176,964,0.0032,964,0.0033,964,0.0128,964,0.0131
965,0.00024546,965,0.000253782,965,0.0032,965,0.0033,965,0.0127,965,0.013
966,0.00024222,966,0.000250432,966,0.0032,966,0.0033,966,0.0125,966,0.0129
967,0.000239023,967,0.000247133,967,0.0031,967,0.0032,967,0.0124,967,0.0128
968,0.000235869,968,0.000243877,968,0.0031,968,0.0032,968,0.0123,968,0.0126
969,0.000232943,969,0.000240857,969,0.0031,969,0.0032,969,0.0122,969,0.0125
970,0.000230367,970,0.000238194,970,0.0031,970,0.0031,970,0.0121,970,0.0124
971,0.000227819,971,0.000235565,971,0.003,971,0.0031,971,0.012,971,0.0123
972,0.000225299,972,0.00023297,972,0.003,972,0.0031,972,0.0119,972,0.0122
973,0.000222818,973,0.000230404,973,0.003,973,0.0031,973,0.0118,973,0.0121
974,0.000220359,974,0.000227866,974,0.0029,974,0.003,974,0.0117,974,0.012
975,0.000217937,975,0.000225367,975,0.0029,975,0.003,975,0.0116,975,0.0119
976,0.000215541,976,0.00022289,976,0.0029,976,0.003,976,0.0115,976,0.0118
977,0.000213172,977,0.00022045,977,0.0029,977,0.0029,977,0.0115,977,0.0118
978,0.000210834,978,0.000218037,978,0.0028,978,0.0029,978,0.0114,978,0.0117
979,0.000208526,979,0.000215655,979,0.0028,979,0.0029,979,0.0113,979,0.0116
980,0.000206243,980,0.0002133,980,0.0028,980,0.0029,980,0.0112,980,0.0115
981,0.000203991,981,0.000210975,981,0.0028,981,0.0028,981,0.0111,981,0.0114
982,0.000201762,982,0.000208675,982,0.0027,982,0.0028,982,0.011,982,0.0113
983,0.000199563,983,0.000206405,983,0.0027,983,0.0028,983,0.0109,983,0.0112
984,0.000197392,984,0.00020416,984,0.0027,984,0.0028,984,0.0108,984,0.0111
985,0.000195245,985,0.000201948,985,0.0027,985,0.0027,985,0.0108,985,0.011
986,0.000193126,986,0.000199761,986,0.0027,986,0.0027,986,0.0107,986,0.0109
987,0.000191034,987,0.000197601,987,0.0026,987,0.0027,987,0.0106,987,0.0109
988,0.000188964,988,0.000195465,988,0.0026,988,0.0027,988,0.0105,988,0.0108
989,0.000186922,989,0.000193357,989,0.0026,989,0.0027,989,0.0104,989,0.0107
990,0.000184906,990,0.000191276,990,0.0026,990,0.0026,990,0.0103,990,0.0106
991,0.000182911,991,0.000189217,991,0.0025,991,0.0026,991,0.0103,991,0.0105
992,0.000180938,992,0.00018718,992,0.0025,992,0.0026,992,0.0102,992,0.0104
993,0.000178995,993,0.000185174,993,0.0025,993,0.0026,993,0.0101,993,0.0104
994,0.000177068,994,0.000183185,994,0.0025,994,0.0025,994,0.01,994,0.0103
995,0.00017517,995,0.000181226,995,0.0025,995,0.0025,995,0.0099,995,0.0102
996,0.000173293,996,0.000179287,996,0.0024,996,0.0025,996,0.0099,996,0.0101
997,0.000171435,997,0.00017737,997,0.0024,997,0.0025,997,0.0098,997,0.01
998,0.000169602,998,0.000175481,998,0.0024,998,0.0025,998,0.0097,998,0.01
999,0.000167792,999,0.000173608,999,0.0024,999,0.0024,999,0.0096,999,0.0099
1000,0.000166058,1000,0.000171819,1000,0.0023,1000,0.0024,1000,0.0096,1000,0.0098
1001,0.000164744,1001,0.000170463,1001,0.0023,1001,0.0024,1001,0.0095,1001,0.0097
1002,0.000163444,1002,0.000169122,1002,0.0023,1002,0.0024,1002,0.0094,1002,0.0097
1003,0.000162155,1003,0.000167792,1003,0.0023,1003,0.0024,1003,0.0094,1003,0.0096
1004,0.000160876,1004,0.000166472,1004,0.0023,1004,0.0023,1004,0.0093,1004,0.0096
1005,0.00015961,1005,0.000165166,1005,0.0023,1005,0.0023,1005,0.0093,1005,0.0095
1006,0.000158358,1006,0.00016387,1006,0.0023,1006,0.0023,1006,0.0092,1006,0.0095
1007,0.000157112,1007,0.000162589,1007,0.0022,1007,0.0023,1007,0.0092,1007,0.0094
1008,0.00015588,1008,0.000161313,1008,0.0022,1008,0.0023,1008,0.0091,1008,0.0094
1009,0.000154661,1009,0.000160055,1009,0.0022,1009,0.0023,1009,0.0091,1009,0.0093
1010,0.000153448,1010,0.000158803,1010,0.0022,1010,0.0023,1010,0.009,1010,0.0092
1011,0.000152251,1011,0.000157565,1011,0.0022,1011,0.0022,1011,0.009,1011,0.0092
1012,0.00015106,1012,0.00015634,1012,0.0022,1012,0.0022,1012,0.0089,1012,0.0091
1013,0.000149882,1013,0.000155124,1013,0.0022,1013,0.0022,1013,0.0089,1013,0.0091
1014,0.000148713,1014,0.000153918,1014,0.0021,1014,0.0022,1014,0.0088,1014,0.009
1015,0.000147557,1015,0.000152721,1015,0.0021,1015,0.0022,1015,0.0088,1015,0.009
1016,0.00014641,1016,0.000151537,1016,0.0021,1016,0.0022,1016,0.0087,1016,0.0089
1017,0.000145271,1017,0.000150366,1017,0.0021,1017,0.0022,1017,0.0087,1017,0.0089
1018,0.000144145,1018,0.000149204,1018,0.0021,1018,0.0021,1018,0.0086,1018,0.0088
1019,0.000143028,1019,0.000148051,1019,0.0021,1019,0.0021,1019,0.0086,1019,0.0088
1020,0.000141922,1020,0.000146906,1020,0.0021,1020,0.0021,1020,0.0085,1020,0.0087
1021,0.000140825,1021,0.000145774,1021,0.0021,1021,0.0021,1021,0.0085,1021,0.0087
1022,0.000139737,1022,0.000144654,1022,0.002,1022,0.0021,1022,0.0084,1022,0.0086
1023,0.00013866,1023,0.000143539,1023,0.002,1023,0.0021,1023,0.0084,1023,0.0086
1024,0.000137591,1024,0.000142436,1024,0.002,1024,0.0021,1024,0.0083,1024,0.0085
1025,0.000136534,1025,0.000141345,1025,0.002,1025,0.0021,1025,0.0083,1025,0.0085
1026,0.000135485,1026,0.000140262,1026,0.002,1026,0.002,1026,0.0082,1026,0.0084
1027,0.000134444,1027,0.000139191,1027,0.002,1027,0.002,1027,0.0082,1027,0.0084
1028,0.000133414,1028,0.000138127,1028,0.002,1028,0.002,1028,0.0081,1028,0.0083
1029,0.000132395,1029,0.000137072,1029,0.002,1029,0.002,1029,0.0081,1029,0.0083
1030,0.00013138,1030,0.000136029,1030,0.0019,1030,0.002,1030,0.008,1030,0.0082
1031,0.000130377,1031,0.000134993,1031,0.0019,1031,0.002,1031,0.008,1031,0.0082
1032,0.000129384,1032,0.000133965,1032,0.0019,1032,0.002,1032,0.008,1032,0.0081
1033,0.000128399,1033,0.000132947,1033,0.0019,1033,0.002,1033,0.0079,1033,0.0081
1034,0.000127485,1034,0.000132008,1034,0.0019,1034,0.0019,1034,0.0079,1034,0.0081
1035,0.000126596,1035,0.00013109,1035,0.0019,1035,0.0019,1035,0.0078,1035,0.008
1036,0.000125716,1036,0.000130182,1036,0.0019,1036,0.0019,1036,0.0078,1036,0.008
1037,0.000124842,1037,0.00012928,1037,0.0019,1037,0.0019,1037,0.0077,1037,0.0079
1038,0.000123974,1038,0.000128384,1038,0.0019,1038,0.0019,1038,0.0077,1038,0.0079
1039,0.000123112,1039,0.000127494,1039,0.0018,1039,0.0019,1039,0.0077,1039,0.0078
1040,0.000122259,1040,0.000126613,1040,0.0018,1040,0.0019,1040,0.0076,1040,0.0078
1041,0.000121412,1041,0.000125742,1041,0.0018,1041,0.0019,1041,0.0076,1041,0.0078
1042,0.000120573,1042,0.000124873,1042,0.0018,1042,0.0019,1042,0.0075,1042,0.0077
1043,0.00011974,1043,0.000124014,1043,0.0018,1043,0.0018,1043,0.0075,1043,0.0077
1044,0.000118913,1044,0.000123163,1044,0.0018,1044,0.0018,1044,0.0075,1044,0.0076
1045,0.000118095,1045,0.000122318,1045,0.0018,1045,0.0018,1045,0.0074,1045,0.0076
1046,0.000117282,1046,0.000121479,1046,0.0018,1046,0.0018,1046,0.0074,1046,0.0076
1047,0.000116474,1047,0.000120645,1047,0.0018,1047,0.0018,1047,0.0073,1047,0.0075
1048,0.000115675,1048,0.00011982,1048,0.0018,1048,0.0018,1048,0.0073,1048,0.0075
1049,0.000114881,1049,0.000119001,1049,0.0017,1049,0.0018,1049,0.0073,1049,0.0074
1050,0.000114093,1050,0.000118187,1050,0.0017,1050,0.0018,1050,0.0072,1050,0.0074
1051,0.00011331,1051,0.000117382,1051,0.0017,1051,0.0018,1051,0.0072,1051,0.0074
1052,0.000112536,1052,0.000116582,1052,0.0017,1052,0.0018,1052,0.0072,1052,0.0073
1053,0.000111769,1053,0.00011579,1053,0.0017,1053,0.0017,1053,0.0071,1053,0.0073
1054,0.000111004,1054,0.000115003,1054,0.0017,1054,0.0017,1054,0.0071,1054,0.0073
1055,0.000110248,1055,0.000114222,1055,0.0017,1055,0.0017,1055,0.007,1055,0.0072
1056,0.000109499,1056,0.000113449,1056,0.0017,1056,0.0017,1056,0.007,1056,0.0072
1057,0.000108753,1057,0.000112681,1057,0.0017,1057,0.0017,1057,0.007,1057,0.0071
1058,0.000108014,1058,0.000111918,1058,0.0017,1058,0.0017,1058,0.0069,1058,0.0071
1059,0.000107283,1059,0.00011116,1059,0.0016,1059,0.0017,1059,0.0069,1059,0.0071
1060,0.000106557,1060,0.00011041,1060,0.0016,1060,0.0017,1060,0.0069,1060,0.007
1061,0.000105835,1061,0.000109668,1061,0.0016,1061,0.0017,1061,0.0068,1061,0.007
1062,0.000105119,1062,0.000108928,1062,0.0016,1062,0.0017,1062,0.0068,1062,0.007
1063,0.000104409,1063,0.000108196,1063,0.0016,1063,0.0016,1063,0.0068,1063,0.0069
1064,0.000103705,1064,0.000107471,1064,0.0016,1064,0.0016,1064,0.0067,1064,0.0069
1065,0.000103005,1065,0.000106751,1065,0.0016,1065,0.0016,1065,0.0067,1065,0.0069
1066,0.000102313,1066,0.000106035,1066,0.0016,1066,0.0016,1066,0.0067,1066,0.0068
1067,0.000101625,1067,0.000105325,1067,0.0016,1067,0.0016,1067,0.0066,1067,0.0068
1068,0.000100944,1068,0.000104621,1068,0.0016,1068,0.0016,1068,0.0066,1068,0.0067
1069,0.000100265,1069,0.000103923,1069,0.0016,1069,0.0016,1069,0.0066,1069,0.0067
1070,9.95956E-05,1070,0.000103231,1070,0.0015,1070,0.0016,1070,0.0065,1070,0.0067
1071,9.89327E-05,1071,0.000102546,1071,0.0015,1071,0.0016,1071,0.0065,1071,0.0066
1072,9.8272E-05,1072,0.000101866,1072,0.0015,1072,0.0016,1072,0.0065,1072,0.0066
1073,9.7618E-05,1073,0.000101191,1073,0.0015,1073,0.0016,1073,0.0064,1073,0.0066
1074,9.69706E-05,1074,0.000100522,1074,0.0015,1074,0.0016,1074,0.0064,1074,0.0065
1075,9.63252E-05,1075,9.98573E-05,1075,0.0015,1075,0.0015,1075,0.0064,1075,0.0065
1076,9.56864E-05,1076,9.91973E-05,1076,0.0015,1076,0.0015,1076,0.0063,1076,0.0065
1077,9.50539E-05,1077,9.8544E-05,1077,0.0015,1077,0.0015,1077,0.0063,1077,0.0064
1078,9.44235E-05,1078,9.78949E-05,1078,0.0015,1078,0.0015,1078,0.0063,1078,0.0064
1079,9.37994E-05,1079,9.72501E-05,1079,0.0015,1079,0.0015,1079,0.0062,1079,0.0064
1080,9.31816E-05,1080,9.66118E-05,1080,0.0015,1080,0.0015,1080,0.0062,1080,0.0063
1081,9.25657E-05,1081,9.59776E-05,1081,0.0015,1081,0.0015,1081,0.0062,1081,0.0063
1082,9.1956E-05,1082,9.53498E-05,1082,0.0014,1082,0.0015,1082,0.0061,1082,0.0063
1083,9.13524E-05,1083,9.4724E-05,1083,0.0014,1083,0.0015,1083,0.0061,1083,0.0062
1084,9.07507E-05,1084,9.41066E-05,1084,0.0014,1084,0.0015,1084,0.0061,1084,0.0062
1085,9.0155E-05,1085,9.3491E-05,1085,0.0014,1085,0.0015,1085,0.006,1085,0.0062
1086,8.95653E-05,1086,9.28817E-05,1086,0.0014,1086,0.0015,1086,0.006,1086,0.0062
1087,8.89795E-05,1087,9.22763E-05,1087,0.0014,1087,0.0014,1087,0.006,1087,0.0061
1088,8.83975E-05,1088,9.16769E-05,1088,0.0014,1088,0.0014,1088,0.0059,1088,0.0061
1089,8.78193E-05,1089,9.10815E-05,1089,0.0014,1089,0.0014,1089,0.0059,1089,0.0061
1090,8.72469E-05,1090,9.04899E-05,1090,0.0014,1090,0.0014,1090,0.0059,1090,0.006
1091,8.66782E-05,1091,8.99021E-05,1091,0.0014,1091,0.0014,1091,0.0059,1091,0.006
1092,8.61133E-05,1092,8.93203E-05,1092,0.0014,1092,0.0014,1092,0.0058,1092,0.006
1093,8.55539E-05,1093,8.87442E-05,1093,0.0014,1093,0.0014,1093,0.0058,1093,0.0059
1094,8.49983E-05,1094,8.81698E-05,1094,0.0014,1094,0.0014,1094,0.0058,1094,0.0059
1095,8.44481E-05,1095,8.76012E-05,1095,0.0013,1095,0.0014,1095,0.0057,1095,0.0059
1096,8.39016E-05,1096,8.70362E-05,1096,0.0013,1096,0.0014,1096,0.0057,1096,0.0058
1097,8.33585E-05,1097,8.64769E-05,1097,0.0013,1097,0.0014,1097,0.0057,1097,0.0058
1098,8.2819E-05,1098,8.59211E-05,1098,0.0013,1098,0.0014,1098,0.0057,1098,0.0058
1099,8.22849E-05,1099,8.5369E-05,1099,0.0013,1099,0.0014,1099,0.0056,1099,0.0058
1100,8.17542E-05,1100,8.48223E-05,1100,0.0013,1100,0.0013,1100,0.0056,1100,0.0057
1101,8.12288E-05,1101,8.42791E-05,1101,0.0013,1101,0.0013,1101,0.0056,1101,0.0057
1102,8.07068E-05,1102,8.37414E-05,1102,0.0013,1102,0.0013,1102,0.0055,1102,0.0057
1103,8.01881E-05,1103,8.32051E-05,1103,0.0013,1103,0.0013,1103,0.0055,1103,0.0056
1104,7.96728E-05,1104,8.26742E-05,1104,0.0013,1104,0.0013,1104,0.0055,1104,0.0056
1105,7.91626E-05,1105,8.21486E-05,1105,0.0013,1105,0.0013,1105,0.0055,1105,0.0056
1106,7.86557E-05,1106,8.16263E-05,1106,0.0013,1106,0.0013,1106,0.0054,1106,0.0056
1107,7.81538E-05,1107,8.11073E-05,1107,0.0013,1107,0.0013,1107,0.0054,1107,0.0055
1108,7.76551E-05,1108,8.05916E-05,1108,0.0013,1108,0.0013,1108,0.0054,1108,0.0055
1109,7.71596E-05,1109,8.00811E-05,1109,0.0013,1109,0.0013,1109,0.0053,1109,0.0055
1110,7.66673E-05,1110,7.95738E-05,1110,0.0012,1110,0.0013,1110,0.0053,1110,0.0054
1111,7.61798E-05,1111,7.90715E-05,1111,0.0012,1111,0.0013,1111,0.0053,1111,0.0054
1112,7.56972E-05,1112,7.85706E-05,1112,0.0012,1112,0.0013,1112,0.0053,1112,0.0054
1113,7.5216E-05,1113,7.80764E-05,1113,0.0012,1113,0.0013,1113,0.0052,1113,0.0054
1114,7.47395E-05,1114,7.75836E-05,1114,0.0012,1114,0.0013,1114,0.0052,1114,0.0053
1115,7.4266E-05,1115,7.70957E-05,1115,0.0012,1115,0.0012,1115,0.0052,1115,0.0053
1116,7.37972E-05,1116,7.66108E-05,1116,0.0012,1116,0.0012,1116,0.0052,1116,0.0053
1117,7.33314E-05,1117,7.61307E-05,1117,0.0012,1117,0.0012,1117,0.0051,1117,0.0053
1118,7.28685E-05,1118,7.56537E-05,1118,0.0012,1118,0.0012,1118,0.0051,1118,0.0052
1119,7.24102E-05,1119,7.51796E-05,1119,0.0012,1119,0.0012,1119,0.0051,1119,0.0052
1120,7.19548E-05,1120,7.47102E-05,1120,0.0012,1120,0.0012,1120,0.0051,1120,0.0052
1121,7.15023E-05,1121,7.42421E-05,1121,0.0012,1121,0.0012,1121,0.005,1121,0.0052
1122,7.10526E-05,1122,7.37802E-05,1122,0.0012,1122,0.0012,1122,0.005,1122,0.0051
1123,7.06074E-05,1123,7.33196E-05,1123,0.0012,1123,0.0012,1123,0.005,1123,0.0051
1124,7.01665E-05,1124,7.28635E-05,1124,0.0012,1124,0.0012,1124,0.005,1124,0.0051
1125,6.97268E-05,1125,7.24119E-05,1125,0.0011,1125,0.0012,1125,0.0049,1125,0.0051
1126,6.92915E-05,1126,7.19615E-05,1126,0.0011,1126,0.0012,1126,0.0049,1126,0.005
1127,6.88605E-05,1127,7.15155E-05,1127,0.0011,1127,0.0012,1127,0.0049,1127,0.005
1128,6.84368E-05,1128,7.10788E-05,1128,0.0011,1128,0.0012,1128,0.0049,1128,0.005
1129,6.80174E-05,1129,7.06464E-05,1129,0.0011,1129,0.0012,1129,0.0048,1129,0.005
1130,6.76005E-05,1130,7.02166E-05,1130,0.0011,1130,0.0011,1130,0.0048,1130,0.0049
1131,6.71877E-05,1131,6.97911E-05,1131,0.0011,1131,0.0011,1131,0.0048,1131,0.0049
1132,6.67775E-05,1132,6.93681E-05,1132,0.0011,1132,0.0011,1132,0.0048,1132,0.0049
1133,6.63713E-05,1133,6.89477E-05,1133,0.0011,1133,0.0011,1133,0.0047,1133,0.0049
1134,6.59675E-05,1134,6.85315E-05,1134,0.0011,1134,0.0011,1134,0.0047,1134,0.0048
1135,6.55662E-05,1135,6.81177E-05,1135,0.0011,1135,0.0011,1135,0.0047,1135,0.0048
1136,6.51673E-05,1136,6.77064E-05,1136,0.0011,1136,0.0011,1136,0.0047,1136,0.0048
1137,6.47724E-05,1137,6.72992E-05,1137,0.0011,1137,0.0011,1137,0.0047,1137,0.0048
1138,6.43799E-05,1138,6.68944E-05,1138,0.0011,1138,0.0011,1138,0.0046,1138,0.0047
1139,6.39912E-05,1139,6.64921E-05,1139,0.0011,1139,0.0011,1139,0.0046,1139,0.0047
1140,6.36048E-05,1140,6.60937E-05,1140,0.0011,1140,0.0011,1140,0.0046,1140,0.0047
1141,6.32208E-05,1141,6.56977E-05,1141,0.0011,1141,0.0011,1141,0.0046,1141,0.0047
1142,6.28406E-05,1142,6.5304E-05,1142,0.0011,1142,0.0011,1142,0.0045,1142,0.0047
1143,6.24626E-05,1143,6.49142E-05,1143,0.001,1143,0.0011,1143,0.0045,1143,0.0046
1144,6.20869E-05,1144,6.45268E-05,1144,0.001,1144,0.0011,1144,0.0045,1144,0.0046
1145,6.17149E-05,1145,6.41431E-05,1145,0.001,1145,0.0011,1145,0.0045,1145,0.0046
1146,6.13451E-05,1146,6.37602E-05,1146,0.001,1146,0.0011,1146,0.0045,1146,0.0046
1147,6.09776E-05,1147,6.33826E-05,1147,0.001,1147,0.0011,1147,0.0044,1147,0.0045
1148,6.06136E-05,1148,6.30057E-05,1148,0.001,1148,0.001,1148,0.0044,1148,0.0045
1149,6.02518E-05,1149,6.26325E-05,1149,0.001,1149,0.001,1149,0.0044,1149,0.0045
1150,5.98922E-05,1150,6.22616E-05,1150,0.001,1150,0.001,1150,0.0044,1150,0.0045
1151,5.9536E-05,1151,6.18942E-05,1151,0.001,1151,0.001,1151,0.0044,1151,0.0045
1152,5.9182E-05,1152,6.1529E-05,1152,0.001,1152,0.001,1152,0.0043,1152,0.0044
1153,5.88302E-05,1153,6.1166E-05,1153,0.001,1153,0.001,1153,0.0043,1153,0.0044
1154,5.84817E-05,1154,6.08051E-05,1154,0.001,1154,0.001,1154,0.0043,1154,0.0044
1155,5.81353E-05,1155,6.04477E-05,1155,0.001,1155,0.001,1155,0.0043,1155,0.0044
1156,5.77923E-05,1156,6.00938E-05,1156,0.001,1156,0.001,1156,0.0042,1156,0.0044
1157,5.745E-05,1157,5.97407E-05,1157,0.001,1157,0.001,1157,0.0042,1157,0.0043
1158,5.7111E-05,1158,5.93909E-05,1158,0.001,1158,0.001,1158,0.0042,1158,0.0043
1159,5.67754E-05,1159,5.90446E-05,1159,0.001,1159,0.001,1159,0.0042,1159,0.0043
1160,5.64417E-05,1160,5.86989E-05,1160,0.001,1160,0.001,1160,0.0042,1160,0.0043
1161,5.611E-05,1161,5.83566E-05,1161,0.001,1161,0.001,1161,0.0041,1161,0.0042
1162,5.57802E-05,1162,5.80176E-05,1162,0.001,1162,0.001,1162,0.0041,1162,0.0042
1163,5.54536E-05,1163,5.76806E-05,1163,0.0009,1163,0.001,1163,0.0041,1163,0.0042
1164,5.5129E-05,1164,5.73456E-05,1164,0.0009,1164,0.001,1164,0.0041,1164,0.0042
1165,5.48075E-05,1165,5.70125E-05,1165,0.0009,1165,0.001,1165,0.0041,1165,0.0042
1166,5.44879E-05,1166,5.66826E-05,1166,0.0009,1166,0.001,1166,0.0041,1166,0.0041
1167,5.41701E-05,1167,5.63547E-05,1167,0.0009,1167,0.001,1167,0.004,1167,0.0041
1168,5.38543E-05,1168,5.60286E-05,1168,0.0009,1168,0.0009,1168,0.004,1168,0.0041
1169,5.35414E-05,1169,5.57057E-05,1169,0.0009,1169,0.0009,1169,0.004,1169,0.0041
1170,5.32304E-05,1170,5.53847E-05,1170,0.0009,1170,0.0009,1170,0.004,1170,0.0041
1171,5.29225E-05,1171,5.50668E-05,1171,0.0009,1171,0.0009,1171,0.004,1171,0.0041
1172,5.26163E-05,1172,5.47495E-05,1172,0.0009,1172,0.0009,1172,0.0039,1172,0.004
1173,5.23118E-05,1173,5.44365E-05,1173,0.0009,1173,0.0009,1173,0.0039,1173,0.004
1174,5.20104E-05,1174,5.4124E-05,1174,0.0009,1174,0.0009,1174,0.0039,1174,0.004
1175,5.17107E-05,1175,5.38146E-05,1175,0.0009,1175,0.0009,1175,0.0039,1175,0.004
1176,5.14127E-05,1176,5.35069E-05,1176,0.0009,1176,0.0009,1176,0.0039,1176,0.004
1177,5.11164E-05,1177,5.3201E-05,1177,0.0009,1177,0.0009,1177,0.0038,1177,0.0039
1178,5.0823E-05,1178,5.28981E-05,1178,0.0009,1178,0.0009,1178,0.0038,1178,0.0039
1179,5.05312E-05,1179,5.25981E-05,1179,0.0009,1179,0.0009,1179,0.0038,1179,0.0039
1180,5.02424E-05,1180,5.22986E-05,1180,0.0009,1180,0.0009,1180,0.0038,1180,0.0039
1181,4.99551E-05,1181,5.2002E-05,1181,0.0009,1181,0.0009,1181,0.0038,1181,0.0039
1182,4.96695E-05,1182,5.17071E-05,1182,0.0009,1182,0.0009,1182,0.0038,1182,0.0038
1183,4.93867E-05,1183,5.1415E-05,1183,0.0009,1183,0.0009,1183,0.0037,1183,0.0038
1184,4.91055E-05,1184,5.11234E-05,1184,0.0009,1184,0.0009,1184,0.0037,1184,0.0038
1185,4.88259E-05,1185,5.08358E-05,1185,0.0009,1185,0.0009,1185,0.0037,1185,0.0038
1186,4.85478E-05,1186,5.05487E-05,1186,0.0008,1186,0.0009,1186,0.0037,1186,0.0038
1187,4.82725E-05,1187,5.02643E-05,1187,0.0008,1187,0.0009,1187,0.0037,1187,0.0038
1188,4.79999E-05,1188,4.99816E-05,1188,0.0008,1188,0.0009,1188,0.0037,1188,0.0037
1189,4.77276E-05,1189,4.97016E-05,1189,0.0008,1189,0.0009,1189,0.0036,1189,0.0037
1190,4.74581E-05,1190,4.94231E-05,1190,0.0008,1190,0.0009,1190,0.0036,1190,0.0037
1191,4.719E-05,1191,4.91462E-05,1191,0.0008,1191,0.0008,1191,0.0036,1191,0.0037
1192,4.69245E-05,1192,4.88709E-05,1192,0.0008,1192,0.0008,1192,0.0036,1192,0.0037
1193,4.66606E-05,1193,4.85982E-05,1193,0.0008,1193,0.0008,1193,0.0036,1193,0.0037
1194,4.63981E-05,1194,4.8327E-05,1194,0.0008,1194,0.0008,1194,0.0036,1194,0.0036
1195,4.61371E-05,1195,4.80585E-05,1195,0.0008,1195,0.0008,1195,0.0035,1195,0.0036
1196,4.58786E-05,1196,4.77914E-05,1196,0.0008,1196,0.0008,1196,0.0035,1196,0.0036
1197,4.56226E-05,1197,4.75259E-05,1197,0.0008,1197,0.0008,1197,0.0035,1197,0.0036
1198,4.5367E-05,1198,4.72618E-05,1198,0.0008,1198,0.0008,1198,0.0035,1198,0.0036
1199,4.51139E-05,1199,4.70002E-05,1199,0.0008,1199,0.0008,1199,0.0035,1199,0.0036
1200,4.48621E-05,1200,4.67401E-05,1200,0.0008,1200,0.0008,1200,0.0035,1200,0.0035